# TOPAS Version: 3.9
# Parameter File: ./bragg_peak/jobs/job2.txt
# Results for scorer: DoseScorer
# Scored in component: Phantom
# R in 1 bin  of 15 cm
# Phi in 1 bin  of 360 deg
# Z in 1000 bins of 0.04 cm
# DoseToMedium ( Gy ) : Sum   
0, 0, 0, 1.241090823861368e-11
0, 0, 1, 1.185142175369469e-11
0, 0, 2, 2.336822749193779e-11
0, 0, 3, 5.136294167762401e-11
0, 0, 4, 2.737924297002703e-11
0, 0, 5, 3.477286514286249e-11
0, 0, 6, 2.060897980049603e-11
0, 0, 7, 5.832101728636685e-12
0, 0, 8, 9.779634567441686e-12
0, 0, 9, 3.218691979611776e-11
0, 0, 10, 1.414285442230545e-11
0, 0, 11, 1.747084768521923e-11
0, 0, 12, 7.864303826210506e-12
0, 0, 13, 5.584379313139376e-12
0, 0, 14, 2.08796556433466e-11
0, 0, 15, 5.508018086769484e-12
0, 0, 16, 4.116325336145366e-12
0, 0, 17, 8.778242716056539e-11
0, 0, 18, 8.006242196989533e-11
0, 0, 19, 4.35199723480828e-11
0, 0, 20, 2.695107678696296e-11
0, 0, 21, 5.737556610374561e-11
0, 0, 22, 1.051703585330799e-10
0, 0, 23, 3.672749604444192e-11
0, 0, 24, 4.700616978992045e-11
0, 0, 25, 3.586093227925247e-11
0, 0, 26, 3.990335492587427e-11
0, 0, 27, 8.050194538755662e-11
0, 0, 28, 1.704544491665239e-11
0, 0, 29, 2.279162969465176e-11
0, 0, 30, 1.784871556109735e-11
0, 0, 31, 2.813822612413031e-11
0, 0, 32, 3.665727443813438e-11
0, 0, 33, 1.636553566275456e-11
0, 0, 34, 4.147583665403687e-11
0, 0, 35, 3.625156771991378e-11
0, 0, 36, 3.268115639221136e-11
0, 0, 37, 2.844294071102649e-11
0, 0, 38, 2.481603464388193e-11
0, 0, 39, 1.916086733722011e-11
0, 0, 40, 2.553411301842168e-11
0, 0, 41, 4.838133019213764e-11
0, 0, 42, 3.408576892960369e-11
0, 0, 43, 4.631013628131342e-11
0, 0, 44, 4.327901925726962e-11
0, 0, 45, 5.069815400826627e-11
0, 0, 46, 5.957220133856467e-11
0, 0, 47, 6.3728966548382e-11
0, 0, 48, 1.194771642731851e-10
0, 0, 49, 1.718760897495564e-11
0, 0, 50, 1.524666504160166e-11
0, 0, 51, 1.363903781581577e-11
0, 0, 52, 3.202666257196007e-11
0, 0, 53, 2.64943934846773e-11
0, 0, 54, 1.755725426155763e-11
0, 0, 55, 2.032334717183559e-11
0, 0, 56, 1.852231042154262e-11
0, 0, 57, 1.876223655605802e-11
0, 0, 58, 2.981942470725585e-11
0, 0, 59, 1.766307586303917e-11
0, 0, 60, 1.522291494249206e-11
0, 0, 61, 2.965465720206062e-11
0, 0, 62, 4.247856580374965e-11
0, 0, 63, 3.205232954051063e-11
0, 0, 64, 4.944461506894982e-11
0, 0, 65, 2.683202444953015e-11
0, 0, 66, 3.370570142435803e-11
0, 0, 67, 3.722644068004932e-11
0, 0, 68, 7.212371672116191e-11
0, 0, 69, 4.028146219359208e-11
0, 0, 70, 2.523890298145037e-11
0, 0, 71, 3.019256372693846e-11
0, 0, 72, 1.003628360973785e-10
0, 0, 73, 1.090907086886972e-10
0, 0, 74, 5.474702982621871e-11
0, 0, 75, 6.987548734072035e-11
0, 0, 76, 4.54451511144871e-11
0, 0, 77, 4.754919721849937e-11
0, 0, 78, 3.595242506482244e-11
0, 0, 79, 2.97477667499102e-11
0, 0, 80, 4.592494440291972e-11
0, 0, 81, 5.889608245546185e-11
0, 0, 82, 7.863928952467347e-11
0, 0, 83, 3.128541592456457e-10
0, 0, 84, 6.088841236762121e-11
0, 0, 85, 6.246990424951804e-11
0, 0, 86, 6.761392140619549e-11
0, 0, 87, 4.908953105120517e-11
0, 0, 88, 3.963011169227926e-11
0, 0, 89, 4.654316515528834e-11
0, 0, 90, 4.0442930254736e-11
0, 0, 91, 3.529370545818367e-11
0, 0, 92, 2.704935060660052e-11
0, 0, 93, 6.549585873649733e-11
0, 0, 94, 6.632527166372526e-11
0, 0, 95, 5.498902722056442e-11
0, 0, 96, 6.461305102067882e-11
0, 0, 97, 4.820574842079317e-11
0, 0, 98, 6.988501444205042e-11
0, 0, 99, 4.600143183042249e-11
0, 0, 100, 9.096804559627358e-11
0, 0, 101, 1.184380510332872e-10
0, 0, 102, 5.082596149508234e-11
0, 0, 103, 7.908504406906047e-11
0, 0, 104, 5.017176951671587e-11
0, 0, 105, 5.304281319729043e-11
0, 0, 106, 3.549934304847291e-11
0, 0, 107, 2.979854904494594e-11
0, 0, 108, 2.59101611693735e-11
0, 0, 109, 4.249782470377994e-11
0, 0, 110, 5.649117285067007e-11
0, 0, 111, 3.520056815475847e-11
0, 0, 112, 1.108326624921219e-10
0, 0, 113, 7.325164780302984e-11
0, 0, 114, 6.90515492007826e-11
0, 0, 115, 1.208794037088623e-10
0, 0, 116, 5.339770639545272e-11
0, 0, 117, 5.283515638887515e-11
0, 0, 118, 5.487986454166816e-11
0, 0, 119, 6.642963262804003e-11
0, 0, 120, 4.406650738753015e-11
0, 0, 121, 5.988903123421707e-11
0, 0, 122, 5.550139167698198e-11
0, 0, 123, 6.410823261138177e-11
0, 0, 124, 4.995951569108925e-11
0, 0, 125, 4.315567694868072e-11
0, 0, 126, 3.663733205705455e-11
0, 0, 127, 3.18822399036911e-11
0, 0, 128, 1.207164923577864e-10
0, 0, 129, 7.155317310880704e-11
0, 0, 130, 8.892154373940642e-11
0, 0, 131, 4.688991556145439e-11
0, 0, 132, 4.146549770212005e-11
0, 0, 133, 3.844742232916865e-11
0, 0, 134, 8.333098794333083e-11
0, 0, 135, 8.131490619733839e-11
0, 0, 136, 2.217791922332069e-11
0, 0, 137, 2.898363320180675e-11
0, 0, 138, 2.406867760651465e-11
0, 0, 139, 6.049076517467e-11
0, 0, 140, 7.081600583713765e-11
0, 0, 141, 5.185913851124546e-11
0, 0, 142, 1.113311109968151e-10
0, 0, 143, 8.220860797658602e-11
0, 0, 144, 2.015743405525683e-10
0, 0, 145, 5.558472779276791e-11
0, 0, 146, 7.559502329668177e-11
0, 0, 147, 4.32916723303034e-11
0, 0, 148, 3.401587345130963e-11
0, 0, 149, 4.387495922131279e-11
0, 0, 150, 1.270690219712378e-10
0, 0, 151, 1.686667056022273e-10
0, 0, 152, 7.534684681731463e-11
0, 0, 153, 1.077050462705564e-10
0, 0, 154, 1.351031231333621e-10
0, 0, 155, 1.109171504642958e-10
0, 0, 156, 9.008199741700196e-11
0, 0, 157, 7.493163728389263e-11
0, 0, 158, 7.921791694842639e-11
0, 0, 159, 6.183432238460185e-11
0, 0, 160, 5.072468139966091e-11
0, 0, 161, 4.425864189028239e-11
0, 0, 162, 4.112750418006073e-11
0, 0, 163, 6.937857927047375e-11
0, 0, 164, 6.076320002712521e-11
0, 0, 165, 5.970419297840479e-11
0, 0, 166, 8.134862922171138e-11
0, 0, 167, 1.783675845912214e-10
0, 0, 168, 6.659015699961301e-11
0, 0, 169, 1.214173067642932e-10
0, 0, 170, 1.376180419621065e-10
0, 0, 171, 1.749701356024147e-10
0, 0, 172, 1.054378737097572e-10
0, 0, 173, 1.34382255323473e-10
0, 0, 174, 8.802777951011365e-11
0, 0, 175, 9.532387379440621e-11
0, 0, 176, 1.253695897096563e-10
0, 0, 177, 9.471498585433835e-11
0, 0, 178, 1.852874936814075e-10
0, 0, 179, 1.635085400408798e-10
0, 0, 180, 9.14466766199773e-11
0, 0, 181, 6.81495623822137e-11
0, 0, 182, 5.314824622071335e-11
0, 0, 183, 1.056338141958157e-10
0, 0, 184, 1.003878438710082e-10
0, 0, 185, 4.490611701934988e-11
0, 0, 186, 1.008211569786255e-10
0, 0, 187, 1.607863980845892e-10
0, 0, 188, 1.608260330465683e-10
0, 0, 189, 9.812767959305191e-11
0, 0, 190, 1.621112827310256e-10
0, 0, 191, 6.495971122122413e-11
0, 0, 192, 9.511831600139686e-11
0, 0, 193, 6.012006170674766e-11
0, 0, 194, 8.308863319594906e-11
0, 0, 195, 2.524080389143535e-10
0, 0, 196, 1.405152522115927e-10
0, 0, 197, 1.443445224458273e-10
0, 0, 198, 1.044365566249539e-10
0, 0, 199, 6.558507903431376e-11
0, 0, 200, 1.011267042327901e-10
0, 0, 201, 2.092664930231081e-10
0, 0, 202, 2.088754169626839e-10
0, 0, 203, 1.118746692507777e-10
0, 0, 204, 7.894257469942545e-11
0, 0, 205, 6.868781932123369e-11
0, 0, 206, 1.74767492144845e-10
0, 0, 207, 1.711737002141334e-10
0, 0, 208, 9.932755312691555e-11
0, 0, 209, 9.561636898913761e-11
0, 0, 210, 1.045110387121184e-10
0, 0, 211, 1.53430698701662e-10
0, 0, 212, 1.343250927154926e-10
0, 0, 213, 7.310971966711932e-11
0, 0, 214, 1.55393670153714e-10
0, 0, 215, 8.471856549618906e-11
0, 0, 216, 1.0279534862212e-10
0, 0, 217, 1.830967183424903e-10
0, 0, 218, 9.445277893149751e-11
0, 0, 219, 9.32087462768294e-11
0, 0, 220, 8.353580327469246e-11
0, 0, 221, 1.526812426488888e-10
0, 0, 222, 1.282279282754928e-10
0, 0, 223, 1.368497537512781e-10
0, 0, 224, 1.484101036508534e-10
0, 0, 225, 1.269166299833202e-10
0, 0, 226, 1.08107647833755e-10
0, 0, 227, 8.854029315275014e-11
0, 0, 228, 7.615136299321534e-11
0, 0, 229, 1.431646745597703e-10
0, 0, 230, 9.186734012400777e-11
0, 0, 231, 8.301717646652662e-11
0, 0, 232, 9.625686359093777e-11
0, 0, 233, 5.079940981755904e-11
0, 0, 234, 7.282988101486865e-11
0, 0, 235, 1.51871459852515e-10
0, 0, 236, 2.269338050808756e-10
0, 0, 237, 1.012623596086115e-10
0, 0, 238, 1.31933894365055e-10
0, 0, 239, 1.093896570547592e-10
0, 0, 240, 8.815324165079019e-11
0, 0, 241, 6.641177885402527e-11
0, 0, 242, 9.223769664723491e-11
0, 0, 243, 1.411721434196878e-10
0, 0, 244, 1.412791550414738e-10
0, 0, 245, 7.967689008570034e-11
0, 0, 246, 8.361469155948598e-11
0, 0, 247, 8.069831608503719e-11
0, 0, 248, 5.167625702351408e-11
0, 0, 249, 1.196658883095836e-10
0, 0, 250, 5.024092600280916e-11
0, 0, 251, 6.447564010469975e-11
0, 0, 252, 1.116290948566245e-10
0, 0, 253, 5.698113161867191e-11
0, 0, 254, 1.347458672418256e-10
0, 0, 255, 1.278054884146229e-10
0, 0, 256, 9.575840814735059e-11
0, 0, 257, 2.003205934464347e-10
0, 0, 258, 1.303387120454857e-10
0, 0, 259, 1.384715536678627e-10
0, 0, 260, 9.296589886798046e-11
0, 0, 261, 1.345822481235714e-10
0, 0, 262, 1.061426224691076e-10
0, 0, 263, 1.466716886833197e-10
0, 0, 264, 1.769197288670199e-10
0, 0, 265, 3.37372157988014e-10
0, 0, 266, 3.305862805724757e-10
0, 0, 267, 3.432479578346914e-10
0, 0, 268, 5.156762794555902e-10
0, 0, 269, 5.726114582493835e-10
0, 0, 270, 7.836090665236384e-10
0, 0, 271, 9.90240778264706e-10
0, 0, 272, 1.447673869670041e-09
0, 0, 273, 2.200615911718273e-09
0, 0, 274, 2.733117954178965e-09
0, 0, 275, 3.564894379692873e-09
0, 0, 276, 4.528407426818148e-09
0, 0, 277, 5.835854022251397e-09
0, 0, 278, 7.052184169964448e-09
0, 0, 279, 8.563978859399413e-09
0, 0, 280, 1.019274531444125e-08
0, 0, 281, 1.252846182353551e-08
0, 0, 282, 1.536187355100083e-08
0, 0, 283, 1.68502243269586e-08
0, 0, 284, 1.955646311557757e-08
0, 0, 285, 2.268010312889146e-08
0, 0, 286, 2.553508693381445e-08
0, 0, 287, 2.805412613327007e-08
0, 0, 288, 3.01703906302464e-08
0, 0, 289, 3.281109783870306e-08
0, 0, 290, 3.51532563058754e-08
0, 0, 291, 3.734853848413877e-08
0, 0, 292, 3.921988067645543e-08
0, 0, 293, 4.063855385538773e-08
0, 0, 294, 4.193149294451359e-08
0, 0, 295, 4.24548929345292e-08
0, 0, 296, 4.38640128663792e-08
0, 0, 297, 4.378327744802846e-08
0, 0, 298, 4.373626438791689e-08
0, 0, 299, 4.317178792234699e-08
0, 0, 300, 4.346799542531699e-08
0, 0, 301, 4.286056665137039e-08
0, 0, 302, 4.196052927341043e-08
0, 0, 303, 4.177753609724277e-08
0, 0, 304, 4.058035329990162e-08
0, 0, 305, 3.940686355008438e-08
0, 0, 306, 3.90156174034928e-08
0, 0, 307, 3.808940718386111e-08
0, 0, 308, 3.70584274378416e-08
0, 0, 309, 3.616209909296231e-08
0, 0, 310, 3.549471827568595e-08
0, 0, 311, 3.470800535865237e-08
0, 0, 312, 3.3649349973075e-08
0, 0, 313, 3.285807181896416e-08
0, 0, 314, 3.237289547541877e-08
0, 0, 315, 3.165132866911335e-08
0, 0, 316, 3.126373471218358e-08
0, 0, 317, 3.093561318223692e-08
0, 0, 318, 3.061067843646015e-08
0, 0, 319, 3.014323723959933e-08
0, 0, 320, 2.910256213795037e-08
0, 0, 321, 2.884961247673345e-08
0, 0, 322, 2.818676136939757e-08
0, 0, 323, 2.783000141448611e-08
0, 0, 324, 2.736160986671621e-08
0, 0, 325, 2.69374282879653e-08
0, 0, 326, 2.733307624680492e-08
0, 0, 327, 2.675583665734393e-08
0, 0, 328, 2.629688644617545e-08
0, 0, 329, 2.587003322673809e-08
0, 0, 330, 2.559654532774402e-08
0, 0, 331, 2.558763867455127e-08
0, 0, 332, 2.531552389939407e-08
0, 0, 333, 2.518116026806183e-08
0, 0, 334, 2.487263550676744e-08
0, 0, 335, 2.437250756770482e-08
0, 0, 336, 2.435308665837965e-08
0, 0, 337, 2.406284060896269e-08
0, 0, 338, 2.384599540050658e-08
0, 0, 339, 2.349435490600627e-08
0, 0, 340, 2.351905514785813e-08
0, 0, 341, 2.316492597742581e-08
0, 0, 342, 2.291521461472712e-08
0, 0, 343, 2.317118585892786e-08
0, 0, 344, 2.30882584162373e-08
0, 0, 345, 2.29345324953556e-08
0, 0, 346, 2.26673009251499e-08
0, 0, 347, 2.238039620294785e-08
0, 0, 348, 2.210746252728768e-08
0, 0, 349, 2.190259529299965e-08
0, 0, 350, 2.159608669671798e-08
0, 0, 351, 2.172031621228143e-08
0, 0, 352, 2.168396662227678e-08
0, 0, 353, 2.148075850527675e-08
0, 0, 354, 2.13197850484903e-08
0, 0, 355, 2.125595344182329e-08
0, 0, 356, 2.12520223641377e-08
0, 0, 357, 2.10266293265704e-08
0, 0, 358, 2.099271512179257e-08
0, 0, 359, 2.096021844977258e-08
0, 0, 360, 2.064537163448676e-08
0, 0, 361, 2.053002035040663e-08
0, 0, 362, 2.07320987044568e-08
0, 0, 363, 2.049304725915135e-08
0, 0, 364, 2.03695211808963e-08
0, 0, 365, 2.02031760210275e-08
0, 0, 366, 1.997344867277207e-08
0, 0, 367, 1.9891787772508e-08
0, 0, 368, 1.985447006802588e-08
0, 0, 369, 2.010969346599722e-08
0, 0, 370, 1.973586982728648e-08
0, 0, 371, 1.950062511468786e-08
0, 0, 372, 1.960163764636036e-08
0, 0, 373, 1.929577209125455e-08
0, 0, 374, 1.942099281393439e-08
0, 0, 375, 1.926170867250221e-08
0, 0, 376, 1.932140314409025e-08
0, 0, 377, 1.932815685279365e-08
0, 0, 378, 1.905712387895164e-08
0, 0, 379, 1.908779445614073e-08
0, 0, 380, 1.900365020901518e-08
0, 0, 381, 1.913238456552335e-08
0, 0, 382, 1.923621439914314e-08
0, 0, 383, 1.896042256532837e-08
0, 0, 384, 1.857146614270277e-08
0, 0, 385, 1.867373633501757e-08
0, 0, 386, 1.884781397620827e-08
0, 0, 387, 1.86214350605951e-08
0, 0, 388, 1.842535368723475e-08
0, 0, 389, 1.824149720164314e-08
0, 0, 390, 1.825671169797261e-08
0, 0, 391, 1.850178321660678e-08
0, 0, 392, 1.833043405952139e-08
0, 0, 393, 1.815487316036979e-08
0, 0, 394, 1.818032302480788e-08
0, 0, 395, 1.817760164612992e-08
0, 0, 396, 1.780830238828912e-08
0, 0, 397, 1.770215973806444e-08
0, 0, 398, 1.794115256359419e-08
0, 0, 399, 1.80783601422263e-08
0, 0, 400, 1.78946795159618e-08
0, 0, 401, 1.760446899368162e-08
0, 0, 402, 1.766139057224336e-08
0, 0, 403, 1.788411907455156e-08
0, 0, 404, 1.772303548364107e-08
0, 0, 405, 1.753933887016501e-08
0, 0, 406, 1.738816379770469e-08
0, 0, 407, 1.70965055446004e-08
0, 0, 408, 1.731410925742694e-08
0, 0, 409, 1.701958574074069e-08
0, 0, 410, 1.697016216439806e-08
0, 0, 411, 1.704601615415413e-08
0, 0, 412, 1.715349107200836e-08
0, 0, 413, 1.729647536308221e-08
0, 0, 414, 1.720443698616236e-08
0, 0, 415, 1.687091888413761e-08
0, 0, 416, 1.693356033172222e-08
0, 0, 417, 1.685242878579629e-08
0, 0, 418, 1.665369353531787e-08
0, 0, 419, 1.714481356884789e-08
0, 0, 420, 1.686174044834843e-08
0, 0, 421, 1.658006532068157e-08
0, 0, 422, 1.688910344910255e-08
0, 0, 423, 1.648633762840745e-08
0, 0, 424, 1.662930415591291e-08
0, 0, 425, 1.650574610323474e-08
0, 0, 426, 1.635832980184659e-08
0, 0, 427, 1.648586511748817e-08
0, 0, 428, 1.668798965681617e-08
0, 0, 429, 1.645013369966364e-08
0, 0, 430, 1.625596368626248e-08
0, 0, 431, 1.669521765279569e-08
0, 0, 432, 1.657567416657457e-08
0, 0, 433, 1.633707391590633e-08
0, 0, 434, 1.635016033674219e-08
0, 0, 435, 1.632767165915538e-08
0, 0, 436, 1.606422195266077e-08
0, 0, 437, 1.621366862991636e-08
0, 0, 438, 1.609769384458559e-08
0, 0, 439, 1.609952526848701e-08
0, 0, 440, 1.614737499266994e-08
0, 0, 441, 1.603645394254727e-08
0, 0, 442, 1.625046053277401e-08
0, 0, 443, 1.607858557406416e-08
0, 0, 444, 1.60233177837199e-08
0, 0, 445, 1.644286484747681e-08
0, 0, 446, 1.609626743004355e-08
0, 0, 447, 1.597511811723962e-08
0, 0, 448, 1.608658806162566e-08
0, 0, 449, 1.591575582438054e-08
0, 0, 450, 1.592648324333368e-08
0, 0, 451, 1.565704366157661e-08
0, 0, 452, 1.594324317011342e-08
0, 0, 453, 1.554804107684049e-08
0, 0, 454, 1.565222973454183e-08
0, 0, 455, 1.53074051212343e-08
0, 0, 456, 1.532133175885519e-08
0, 0, 457, 1.517228476188848e-08
0, 0, 458, 1.546502126359428e-08
0, 0, 459, 1.54065649127233e-08
0, 0, 460, 1.576756503141041e-08
0, 0, 461, 1.552611372801493e-08
0, 0, 462, 1.539384975046687e-08
0, 0, 463, 1.543089567235256e-08
0, 0, 464, 1.528625226399072e-08
0, 0, 465, 1.514651160050562e-08
0, 0, 466, 1.534447591211574e-08
0, 0, 467, 1.524883330716875e-08
0, 0, 468, 1.527928894518027e-08
0, 0, 469, 1.518132286548735e-08
0, 0, 470, 1.501717328267205e-08
0, 0, 471, 1.528953319507309e-08
0, 0, 472, 1.511652669705654e-08
0, 0, 473, 1.50733967529959e-08
0, 0, 474, 1.503442881300998e-08
0, 0, 475, 1.508064428890066e-08
0, 0, 476, 1.538477611973121e-08
0, 0, 477, 1.503240021349939e-08
0, 0, 478, 1.495568113796253e-08
0, 0, 479, 1.480230782391345e-08
0, 0, 480, 1.510364988632773e-08
0, 0, 481, 1.512703207140476e-08
0, 0, 482, 1.493171630784218e-08
0, 0, 483, 1.491366141692652e-08
0, 0, 484, 1.498589519144389e-08
0, 0, 485, 1.494632151377573e-08
0, 0, 486, 1.48354475371093e-08
0, 0, 487, 1.49128087656436e-08
0, 0, 488, 1.493994261636544e-08
0, 0, 489, 1.479864319975377e-08
0, 0, 490, 1.504580282585266e-08
0, 0, 491, 1.496997370509234e-08
0, 0, 492, 1.525570603178039e-08
0, 0, 493, 1.487845491254802e-08
0, 0, 494, 1.467124199905356e-08
0, 0, 495, 1.49351073730486e-08
0, 0, 496, 1.500576374269258e-08
0, 0, 497, 1.479142319738003e-08
0, 0, 498, 1.481118694357519e-08
0, 0, 499, 1.45165257592339e-08
0, 0, 500, 1.462968768350947e-08
0, 0, 501, 1.492159285021444e-08
0, 0, 502, 1.466787935555658e-08
0, 0, 503, 1.453857301214612e-08
0, 0, 504, 1.446048791819976e-08
0, 0, 505, 1.450212749887214e-08
0, 0, 506, 1.461454868234568e-08
0, 0, 507, 1.431740503932133e-08
0, 0, 508, 1.462787757589012e-08
0, 0, 509, 1.462974985599885e-08
0, 0, 510, 1.48184549075836e-08
0, 0, 511, 1.455795040072871e-08
0, 0, 512, 1.468595645093274e-08
0, 0, 513, 1.461981469219609e-08
0, 0, 514, 1.446050745812499e-08
0, 0, 515, 1.444696540175983e-08
0, 0, 516, 1.434094354380022e-08
0, 0, 517, 1.435754803935652e-08
0, 0, 518, 1.414866090954092e-08
0, 0, 519, 1.442664299133867e-08
0, 0, 520, 1.434299701230657e-08
0, 0, 521, 1.43013219044974e-08
0, 0, 522, 1.449552478050009e-08
0, 0, 523, 1.435490570855791e-08
0, 0, 524, 1.436425467460367e-08
0, 0, 525, 1.412298189507055e-08
0, 0, 526, 1.451210884795273e-08
0, 0, 527, 1.479034406060009e-08
0, 0, 528, 1.441674424285111e-08
0, 0, 529, 1.455933684724187e-08
0, 0, 530, 1.430204488173104e-08
0, 0, 531, 1.427008999854706e-08
0, 0, 532, 1.417652395474533e-08
0, 0, 533, 1.42759164489803e-08
0, 0, 534, 1.414929418075417e-08
0, 0, 535, 1.384470671439431e-08
0, 0, 536, 1.407406635678399e-08
0, 0, 537, 1.391538795303404e-08
0, 0, 538, 1.419840067740097e-08
0, 0, 539, 1.422484618984754e-08
0, 0, 540, 1.446455222264831e-08
0, 0, 541, 1.416773631746082e-08
0, 0, 542, 1.416988393287966e-08
0, 0, 543, 1.404797522752688e-08
0, 0, 544, 1.408585514894867e-08
0, 0, 545, 1.391081649870785e-08
0, 0, 546, 1.400926041839057e-08
0, 0, 547, 1.371930125060317e-08
0, 0, 548, 1.388752224329437e-08
0, 0, 549, 1.396873550163491e-08
0, 0, 550, 1.383111669639447e-08
0, 0, 551, 1.375192670849401e-08
0, 0, 552, 1.369510993498579e-08
0, 0, 553, 1.412203598505357e-08
0, 0, 554, 1.392871240568638e-08
0, 0, 555, 1.401506644072015e-08
0, 0, 556, 1.409163807863933e-08
0, 0, 557, 1.423876572204108e-08
0, 0, 558, 1.430213547592984e-08
0, 0, 559, 1.409442429434193e-08
0, 0, 560, 1.383521031073087e-08
0, 0, 561, 1.377387981449374e-08
0, 0, 562, 1.383042569358395e-08
0, 0, 563, 1.371673707950549e-08
0, 0, 564, 1.356655676687524e-08
0, 0, 565, 1.346651323785863e-08
0, 0, 566, 1.350067346805872e-08
0, 0, 567, 1.385961834188265e-08
0, 0, 568, 1.372153235479345e-08
0, 0, 569, 1.394042747904223e-08
0, 0, 570, 1.376374125783286e-08
0, 0, 571, 1.359291967872878e-08
0, 0, 572, 1.349288591967479e-08
0, 0, 573, 1.348654521393655e-08
0, 0, 574, 1.33306796712418e-08
0, 0, 575, 1.352538969712214e-08
0, 0, 576, 1.365081558901693e-08
0, 0, 577, 1.357442158678168e-08
0, 0, 578, 1.35391298172749e-08
0, 0, 579, 1.346164424376184e-08
0, 0, 580, 1.393825233009238e-08
0, 0, 581, 1.378936254070595e-08
0, 0, 582, 1.364954371751992e-08
0, 0, 583, 1.363118773411998e-08
0, 0, 584, 1.362022938877772e-08
0, 0, 585, 1.361541190902926e-08
0, 0, 586, 1.364186275054635e-08
0, 0, 587, 1.395749738009044e-08
0, 0, 588, 1.370488345031617e-08
0, 0, 589, 1.401284333013564e-08
0, 0, 590, 1.348748135399092e-08
0, 0, 591, 1.363647861296613e-08
0, 0, 592, 1.397224203003589e-08
0, 0, 593, 1.352257150699643e-08
0, 0, 594, 1.373258751158346e-08
0, 0, 595, 1.339051536319857e-08
0, 0, 596, 1.364203150444609e-08
0, 0, 597, 1.339443311820787e-08
0, 0, 598, 1.33438851079859e-08
0, 0, 599, 1.367241520000562e-08
0, 0, 600, 1.357091683473755e-08
0, 0, 601, 1.343357070027196e-08
0, 0, 602, 1.360295076580087e-08
0, 0, 603, 1.369902058456773e-08
0, 0, 604, 1.37218680862361e-08
0, 0, 605, 1.353272693904728e-08
0, 0, 606, 1.33901378873702e-08
0, 0, 607, 1.349539058281835e-08
0, 0, 608, 1.335289212534008e-08
0, 0, 609, 1.324282639103558e-08
0, 0, 610, 1.374079783289517e-08
0, 0, 611, 1.328763499230945e-08
0, 0, 612, 1.308961117274521e-08
0, 0, 613, 1.307800001626447e-08
0, 0, 614, 1.336331578727368e-08
0, 0, 615, 1.341654431996631e-08
0, 0, 616, 1.378277847408071e-08
0, 0, 617, 1.358890777680699e-08
0, 0, 618, 1.327840415399351e-08
0, 0, 619, 1.330417465084111e-08
0, 0, 620, 1.344359645827353e-08
0, 0, 621, 1.313793607238267e-08
0, 0, 622, 1.31937030189988e-08
0, 0, 623, 1.326264964518487e-08
0, 0, 624, 1.339997357518996e-08
0, 0, 625, 1.328476351147856e-08
0, 0, 626, 1.335325627849215e-08
0, 0, 627, 1.392589688009593e-08
0, 0, 628, 1.37725031379432e-08
0, 0, 629, 1.342716693386592e-08
0, 0, 630, 1.334356891646848e-08
0, 0, 631, 1.337101451781564e-08
0, 0, 632, 1.313145681081096e-08
0, 0, 633, 1.309938291171875e-08
0, 0, 634, 1.291072404541183e-08
0, 0, 635, 1.286366657637927e-08
0, 0, 636, 1.306026220504464e-08
0, 0, 637, 1.303385133155643e-08
0, 0, 638, 1.336141597363394e-08
0, 0, 639, 1.308214336859237e-08
0, 0, 640, 1.351463829735167e-08
0, 0, 641, 1.350270739663983e-08
0, 0, 642, 1.334788368723139e-08
0, 0, 643, 1.320088394152208e-08
0, 0, 644, 1.318937670191644e-08
0, 0, 645, 1.35199780260109e-08
0, 0, 646, 1.34539508422904e-08
0, 0, 647, 1.355906498190507e-08
0, 0, 648, 1.309683472783263e-08
0, 0, 649, 1.360136714367854e-08
0, 0, 650, 1.360481505230382e-08
0, 0, 651, 1.309469688237641e-08
0, 0, 652, 1.296233698155902e-08
0, 0, 653, 1.340971245156197e-08
0, 0, 654, 1.336898058923452e-08
0, 0, 655, 1.287464090893309e-08
0, 0, 656, 1.322067078035616e-08
0, 0, 657, 1.292253593021542e-08
0, 0, 658, 1.319000730859443e-08
0, 0, 659, 1.294346851921091e-08
0, 0, 660, 1.285347117629954e-08
0, 0, 661, 1.282509121125486e-08
0, 0, 662, 1.314630893034519e-08
0, 0, 663, 1.332373145146448e-08
0, 0, 664, 1.31198580888281e-08
0, 0, 665, 1.310334596382745e-08
0, 0, 666, 1.290955253807624e-08
0, 0, 667, 1.293201457031046e-08
0, 0, 668, 1.286189466043197e-08
0, 0, 669, 1.289182716135429e-08
0, 0, 670, 1.27765096280541e-08
0, 0, 671, 1.288126494358721e-08
0, 0, 672, 1.292375184647199e-08
0, 0, 673, 1.275032612824134e-08
0, 0, 674, 1.29851356334143e-08
0, 0, 675, 1.30539170584143e-08
0, 0, 676, 1.302960406235343e-08
0, 0, 677, 1.308490116258554e-08
0, 0, 678, 1.283789963224535e-08
0, 0, 679, 1.274339744838926e-08
0, 0, 680, 1.276938110805759e-08
0, 0, 681, 1.314230058113708e-08
0, 0, 682, 1.307178454368341e-08
0, 0, 683, 1.28837980284402e-08
0, 0, 684, 1.279781791652113e-08
0, 0, 685, 1.270223304317142e-08
0, 0, 686, 1.292559037580077e-08
0, 0, 687, 1.278235206569889e-08
0, 0, 688, 1.271374117095547e-08
0, 0, 689, 1.284390815925462e-08
0, 0, 690, 1.290332640735414e-08
0, 0, 691, 1.343168332113009e-08
0, 0, 692, 1.320874254417959e-08
0, 0, 693, 1.312093544925119e-08
0, 0, 694, 1.331394106074413e-08
0, 0, 695, 1.286656825527643e-08
0, 0, 696, 1.333270738257397e-08
0, 0, 697, 1.341990429892803e-08
0, 0, 698, 1.31587620799678e-08
0, 0, 699, 1.331853560770924e-08
0, 0, 700, 1.283584616373901e-08
0, 0, 701, 1.259369852846248e-08
0, 0, 702, 1.263249327365656e-08
0, 0, 703, 1.292507434413892e-08
0, 0, 704, 1.283097095239327e-08
0, 0, 705, 1.31853621354594e-08
0, 0, 706, 1.310031638723785e-08
0, 0, 707, 1.306870878181599e-08
0, 0, 708, 1.292586926382455e-08
0, 0, 709, 1.285439044096393e-08
0, 0, 710, 1.279994599201473e-08
0, 0, 711, 1.286348982887375e-08
0, 0, 712, 1.303224728133046e-08
0, 0, 713, 1.331186183506361e-08
0, 0, 714, 1.317116193888523e-08
0, 0, 715, 1.252631420811667e-08
0, 0, 716, 1.248776371198801e-08
0, 0, 717, 1.279347117133511e-08
0, 0, 718, 1.276866790078657e-08
0, 0, 719, 1.298700702534461e-08
0, 0, 720, 1.287676720806985e-08
0, 0, 721, 1.315788811240282e-08
0, 0, 722, 1.29689681216405e-08
0, 0, 723, 1.282546335801271e-08
0, 0, 724, 1.304558683301593e-08
0, 0, 725, 1.298013341255455e-08
0, 0, 726, 1.281380868078941e-08
0, 0, 727, 1.286829665048117e-08
0, 0, 728, 1.268903382367625e-08
0, 0, 729, 1.31715482964978e-08
0, 0, 730, 1.279822470223735e-08
0, 0, 731, 1.264694304836667e-08
0, 0, 732, 1.311471642395645e-08
0, 0, 733, 1.242237068765917e-08
0, 0, 734, 1.247273395676984e-08
0, 0, 735, 1.243435043818408e-08
0, 0, 736, 1.240608682451239e-08
0, 0, 737, 1.252344272728578e-08
0, 0, 738, 1.259885085147516e-08
0, 0, 739, 1.268659488573576e-08
0, 0, 740, 1.245297909235887e-08
0, 0, 741, 1.254759141033901e-08
0, 0, 742, 1.255546067113755e-08
0, 0, 743, 1.279180583679818e-08
0, 0, 744, 1.256720860709493e-08
0, 0, 745, 1.249248970935923e-08
0, 0, 746, 1.20913723478111e-08
0, 0, 747, 1.280025241356952e-08
0, 0, 748, 1.282323847107136e-08
0, 0, 749, 1.242249592081635e-08
0, 0, 750, 1.25669776807058e-08
0, 0, 751, 1.276900452040763e-08
0, 0, 752, 1.255708159675351e-08
0, 0, 753, 1.242185732053258e-08
0, 0, 754, 1.280647143886426e-08
0, 0, 755, 1.242480340835073e-08
0, 0, 756, 1.224549261991115e-08
0, 0, 757, 1.200931176725817e-08
0, 0, 758, 1.234238489189465e-08
0, 0, 759, 1.245877445654742e-08
0, 0, 760, 1.229478563402608e-08
0, 0, 761, 1.241353864145367e-08
0, 0, 762, 1.226805679266363e-08
0, 0, 763, 1.244289293822476e-08
0, 0, 764, 1.280350403476405e-08
0, 0, 765, 1.272637639715413e-08
0, 0, 766, 1.229423851611955e-08
0, 0, 767, 1.228498103245101e-08
0, 0, 768, 1.219393563900439e-08
0, 0, 769, 1.239889169113439e-08
0, 0, 770, 1.233236268660676e-08
0, 0, 771, 1.24279129209981e-08
0, 0, 772, 1.229338497665822e-08
0, 0, 773, 1.23837615717548e-08
0, 0, 774, 1.221095136116901e-08
0, 0, 775, 1.209687638947798e-08
0, 0, 776, 1.21436345423831e-08
0, 0, 777, 1.211375533216597e-08
0, 0, 778, 1.194107834834313e-08
0, 0, 779, 1.220921852507217e-08
0, 0, 780, 1.209938726987048e-08
0, 0, 781, 1.192823173568058e-08
0, 0, 782, 1.22574652650087e-08
0, 0, 783, 1.204574129332059e-08
0, 0, 784, 1.253087322794499e-08
0, 0, 785, 1.259681425835879e-08
0, 0, 786, 1.190622889168935e-08
0, 0, 787, 1.236302882290374e-08
0, 0, 788, 1.257053128256302e-08
0, 0, 789, 1.202012089862592e-08
0, 0, 790, 1.20187042540465e-08
0, 0, 791, 1.199929755557605e-08
0, 0, 792, 1.218084744181169e-08
0, 0, 793, 1.226273749210804e-08
0, 0, 794, 1.204544730626367e-08
0, 0, 795, 1.196193721852978e-08
0, 0, 796, 1.18181082697788e-08
0, 0, 797, 1.211321620786521e-08
0, 0, 798, 1.238717661777855e-08
0, 0, 799, 1.240786584588704e-08
0, 0, 800, 1.211364075714982e-08
0, 0, 801, 1.177184394407504e-08
0, 0, 802, 1.205613742172318e-08
0, 0, 803, 1.201623867075341e-08
0, 0, 804, 1.211046285476414e-08
0, 0, 805, 1.248492154104497e-08
0, 0, 806, 1.218211842513028e-08
0, 0, 807, 1.220150824821076e-08
0, 0, 808, 1.201029942166087e-08
0, 0, 809, 1.189034737336669e-08
0, 0, 810, 1.220945300417497e-08
0, 0, 811, 1.186146381115805e-08
0, 0, 812, 1.234745816702798e-08
0, 0, 813, 1.206860922309261e-08
0, 0, 814, 1.242098157661076e-08
0, 0, 815, 1.228469859171355e-08
0, 0, 816, 1.206016531085652e-08
0, 0, 817, 1.220330680951065e-08
0, 0, 818, 1.26497488039945e-08
0, 0, 819, 1.210604150259087e-08
0, 0, 820, 1.207519506607468e-08
0, 0, 821, 1.201051613719528e-08
0, 0, 822, 1.202426869184592e-08
0, 0, 823, 1.196796706182113e-08
0, 0, 824, 1.183918030278619e-08
0, 0, 825, 1.205686128713523e-08
0, 0, 826, 1.182666942156629e-08
0, 0, 827, 1.21416103837646e-08
0, 0, 828, 1.188739684465645e-08
0, 0, 829, 1.174295771733114e-08
0, 0, 830, 1.237145852428512e-08
0, 0, 831, 1.248919279106531e-08
0, 0, 832, 1.172762598145027e-08
0, 0, 833, 1.176443564787633e-08
0, 0, 834, 1.188444809230305e-08
0, 0, 835, 1.203876642819068e-08
0, 0, 836, 1.235619428996415e-08
0, 0, 837, 1.240857283590913e-08
0, 0, 838, 1.202573507441684e-08
0, 0, 839, 1.219674228281065e-08
0, 0, 840, 1.213465683491677e-08
0, 0, 841, 1.221170631282575e-08
0, 0, 842, 1.228042822987163e-08
0, 0, 843, 1.205225075295857e-08
0, 0, 844, 1.205682664817687e-08
0, 0, 845, 1.2169274477003e-08
0, 0, 846, 1.188772102977964e-08
0, 0, 847, 1.181965281205066e-08
0, 0, 848, 1.174957731109316e-08
0, 0, 849, 1.185382725310546e-08
0, 0, 850, 1.227080304033734e-08
0, 0, 851, 1.232105084625346e-08
0, 0, 852, 1.207181554718773e-08
0, 0, 853, 1.247573511165001e-08
0, 0, 854, 1.206428557054551e-08
0, 0, 855, 1.239677960285235e-08
0, 0, 856, 1.24594903283537e-08
0, 0, 857, 1.210845734789245e-08
0, 0, 858, 1.231987134531209e-08
0, 0, 859, 1.201470123390891e-08
0, 0, 860, 1.221121337380282e-08
0, 0, 861, 1.184831699418964e-08
0, 0, 862, 1.225359813616933e-08
0, 0, 863, 1.222372514320114e-08
0, 0, 864, 1.186466214164739e-08
0, 0, 865, 1.21156640275899e-08
0, 0, 866, 1.231737556395274e-08
0, 0, 867, 1.243330594036252e-08
0, 0, 868, 1.195547127963437e-08
0, 0, 869, 1.176341424269367e-08
0, 0, 870, 1.203951249806323e-08
0, 0, 871, 1.202088295571002e-08
0, 0, 872, 1.18760690170916e-08
0, 0, 873, 1.200887211894042e-08
0, 0, 874, 1.156080564612694e-08
0, 0, 875, 1.164138918596791e-08
0, 0, 876, 1.21178684864276e-08
0, 0, 877, 1.179761444092264e-08
0, 0, 878, 1.17095302343273e-08
0, 0, 879, 1.185361409028474e-08
0, 0, 880, 1.194577770036176e-08
0, 0, 881, 1.162736129600717e-08
0, 0, 882, 1.221961998254528e-08
0, 0, 883, 1.184219300398581e-08
0, 0, 884, 1.191952492263226e-08
0, 0, 885, 1.171594732340964e-08
0, 0, 886, 1.180481934426325e-08
0, 0, 887, 1.171178531933492e-08
0, 0, 888, 1.151734707605101e-08
0, 0, 889, 1.176145136838613e-08
0, 0, 890, 1.169601393513631e-08
0, 0, 891, 1.17211618189117e-08
0, 0, 892, 1.149979400594248e-08
0, 0, 893, 1.132563109962348e-08
0, 0, 894, 1.175233066419423e-08
0, 0, 895, 1.186733555869068e-08
0, 0, 896, 1.159375262460571e-08
0, 0, 897, 1.160321616566762e-08
0, 0, 898, 1.15997620397934e-08
0, 0, 899, 1.154764550648224e-08
0, 0, 900, 1.172572883234579e-08
0, 0, 901, 1.14890106317489e-08
0, 0, 902, 1.144074968095765e-08
0, 0, 903, 1.15540998990582e-08
0, 0, 904, 1.133794302887736e-08
0, 0, 905, 1.135711791278027e-08
0, 0, 906, 1.114106851218821e-08
0, 0, 907, 1.134078253528514e-08
