# TOPAS Version: 3.9
# Parameter File: ./bragg_peak/jobs/job3.txt
# Results for scorer: DoseScorer
# Scored in component: Phantom
# R in 1 bin  of 15 cm
# Phi in 1 bin  of 360 deg
# Z in 1000 bins of 0.04 cm
# DoseToMedium ( Gy ) : Sum   
0, 0, 0, 3.638526632765426e-11
0, 0, 1, 3.322462791000014e-11
0, 0, 2, 8.736952133991949e-11
0, 0, 3, 2.740453697303025e-11
0, 0, 4, 4.022920538360175e-11
0, 0, 5, 7.502531929048928e-11
0, 0, 6, 5.616459380908267e-11
0, 0, 7, 4.63236914105547e-11
0, 0, 8, 3.140285947944577e-11
0, 0, 9, 3.565382711290255e-11
0, 0, 10, 2.922435210495067e-11
0, 0, 11, 3.293339559395925e-11
0, 0, 12, 3.296016584664052e-11
0, 0, 13, 3.435695825060314e-11
0, 0, 14, 4.695968960910513e-11
0, 0, 15, 2.697766662840273e-11
0, 0, 16, 2.669928514387188e-11
0, 0, 17, 1.501958557525995e-10
0, 0, 18, 2.246461870691885e-11
0, 0, 19, 9.845102511008008e-11
0, 0, 20, 5.551753848309637e-11
0, 0, 21, 2.774519329562519e-11
0, 0, 22, 2.357187535440008e-11
0, 0, 23, 1.779756897413165e-11
0, 0, 24, 6.253271511713621e-11
0, 0, 25, 4.79671996567177e-11
0, 0, 26, 2.034392619643111e-11
0, 0, 27, 1.599554690090432e-11
0, 0, 28, 2.07455892742292e-11
0, 0, 29, 1.393273864336297e-11
0, 0, 30, 3.61235520662806e-11
0, 0, 31, 4.97652231923329e-11
0, 0, 32, 3.388702166096103e-11
0, 0, 33, 6.783826972389662e-11
0, 0, 34, 5.9443498734435e-11
0, 0, 35, 3.014691274394465e-11
0, 0, 36, 8.321655170506759e-11
0, 0, 37, 8.785768640384717e-11
0, 0, 38, 1.310582753433209e-10
0, 0, 39, 4.286334828740301e-11
0, 0, 40, 3.293623360156595e-11
0, 0, 41, 2.550468516937521e-11
0, 0, 42, 2.156625225624431e-11
0, 0, 43, 3.092889486189243e-11
0, 0, 44, 4.193721064860156e-11
0, 0, 45, 2.26945545689361e-11
0, 0, 46, 9.029158670736948e-11
0, 0, 47, 1.840209408465743e-11
0, 0, 48, 1.707870650458077e-11
0, 0, 49, 2.37521981250044e-11
0, 0, 50, 2.022912740096139e-11
0, 0, 51, 1.736388637041397e-11
0, 0, 52, 4.725297583774157e-11
0, 0, 53, 5.917614315231745e-11
0, 0, 54, 2.640050122959536e-10
0, 0, 55, 1.049541009656707e-10
0, 0, 56, 9.158736963277292e-11
0, 0, 57, 1.198124793821975e-10
0, 0, 58, 1.014974354562881e-10
0, 0, 59, 8.506829268783989e-11
0, 0, 60, 7.076647601245156e-11
0, 0, 61, 6.982035088975991e-11
0, 0, 62, 6.250270440100181e-11
0, 0, 63, 1.200101962250955e-10
0, 0, 64, 9.492719110770764e-11
0, 0, 65, 6.460532109286987e-11
0, 0, 66, 4.180153445609847e-11
0, 0, 67, 6.512235195543781e-11
0, 0, 68, 6.981757533219834e-11
0, 0, 69, 1.42063055763586e-10
0, 0, 70, 4.322795940647772e-11
0, 0, 71, 3.575544374467832e-11
0, 0, 72, 3.880872359585119e-11
0, 0, 73, 4.074645829077461e-11
0, 0, 74, 4.05777252077133e-11
0, 0, 75, 6.43975914260686e-11
0, 0, 76, 5.398871280593021e-11
0, 0, 77, 2.913329646969665e-11
0, 0, 78, 3.873616705174499e-11
0, 0, 79, 1.130372878632713e-10
0, 0, 80, 3.295665476632514e-11
0, 0, 81, 1.894065286556224e-11
0, 0, 82, 3.050778379920516e-11
0, 0, 83, 2.193071418910009e-11
0, 0, 84, 2.05290159871474e-11
0, 0, 85, 2.875825098891394e-11
0, 0, 86, 2.553218574063987e-11
0, 0, 87, 3.138158483073639e-11
0, 0, 88, 9.981520471269434e-11
0, 0, 89, 2.072713875533871e-11
0, 0, 90, 1.964211258920212e-11
0, 0, 91, 4.596258790234842e-11
0, 0, 92, 3.698393327700167e-11
0, 0, 93, 2.047004406258157e-11
0, 0, 94, 6.880436498324372e-11
0, 0, 95, 1.883153182002939e-11
0, 0, 96, 1.200544108570512e-10
0, 0, 97, 2.459856797421001e-11
0, 0, 98, 1.339596628069373e-10
0, 0, 99, 1.180231745667726e-10
0, 0, 100, 9.753390456390676e-11
0, 0, 101, 6.234986138498044e-11
0, 0, 102, 5.780937534227704e-11
0, 0, 103, 4.82829609627089e-11
0, 0, 104, 1.00285175996806e-10
0, 0, 105, 6.906662741723579e-11
0, 0, 106, 7.531525403337014e-11
0, 0, 107, 1.106516128723811e-10
0, 0, 108, 5.564684130154873e-11
0, 0, 109, 6.5909430690958e-11
0, 0, 110, 6.591534956745804e-11
0, 0, 111, 5.722525925344613e-11
0, 0, 112, 4.491758701097304e-11
0, 0, 113, 4.815375181932424e-11
0, 0, 114, 4.277447840372872e-11
0, 0, 115, 4.93622746844391e-11
0, 0, 116, 2.372428642427593e-11
0, 0, 117, 2.739148664832047e-11
0, 0, 118, 2.817091525331161e-11
0, 0, 119, 2.992534692269899e-11
0, 0, 120, 1.04254507804491e-10
0, 0, 121, 3.81432108120805e-11
0, 0, 122, 3.590728755997752e-11
0, 0, 123, 5.237497241461497e-11
0, 0, 124, 1.685573035314913e-11
0, 0, 125, 3.591696384752652e-11
0, 0, 126, 1.250832770693933e-10
0, 0, 127, 1.031453256139514e-10
0, 0, 128, 1.002854743692438e-10
0, 0, 129, 6.051411455265665e-11
0, 0, 130, 6.023582327374655e-11
0, 0, 131, 3.783585944550083e-11
0, 0, 132, 4.749746082555184e-11
0, 0, 133, 4.9444240368679e-11
0, 0, 134, 7.749961089542623e-11
0, 0, 135, 4.907571224399554e-11
0, 0, 136, 2.496867469725661e-11
0, 0, 137, 1.432796936651215e-11
0, 0, 138, 3.519199515134019e-11
0, 0, 139, 5.407402303703179e-11
0, 0, 140, 2.031650125911e-10
0, 0, 141, 1.313048558770902e-10
0, 0, 142, 8.825705444248655e-11
0, 0, 143, 6.122082008008789e-11
0, 0, 144, 3.358290728838753e-11
0, 0, 145, 1.038350794235754e-10
0, 0, 146, 4.526114205649634e-11
0, 0, 147, 7.306887733760092e-11
0, 0, 148, 1.537580757160484e-10
0, 0, 149, 1.021411566437536e-10
0, 0, 150, 1.165342544684478e-10
0, 0, 151, 3.661123487708196e-11
0, 0, 152, 3.398092918160955e-11
0, 0, 153, 7.532909712670843e-11
0, 0, 154, 6.721041778678938e-11
0, 0, 155, 7.991981382238222e-11
0, 0, 156, 7.601559659509149e-11
0, 0, 157, 6.715462907980196e-11
0, 0, 158, 1.106559358032833e-10
0, 0, 159, 6.659058027214115e-11
0, 0, 160, 3.175557039547527e-11
0, 0, 161, 5.319506987677691e-11
0, 0, 162, 6.227937610070455e-11
0, 0, 163, 8.391098926807672e-11
0, 0, 164, 1.117109321713272e-10
0, 0, 165, 4.191216471105541e-11
0, 0, 166, 2.840446107488237e-11
0, 0, 167, 4.00128888355944e-11
0, 0, 168, 4.403610115444323e-11
0, 0, 169, 9.676263956759357e-11
0, 0, 170, 6.058670926067933e-11
0, 0, 171, 8.035146159546258e-11
0, 0, 172, 2.631060820601494e-11
0, 0, 173, 2.46703022593886e-11
0, 0, 174, 5.133219196928884e-11
0, 0, 175, 2.693217870941567e-11
0, 0, 176, 9.673674361554419e-11
0, 0, 177, 7.229194326496824e-11
0, 0, 178, 8.481350344258232e-11
0, 0, 179, 5.095234997809506e-11
0, 0, 180, 1.339299920966042e-10
0, 0, 181, 1.068314256502667e-10
0, 0, 182, 1.045907388474987e-10
0, 0, 183, 7.693444492584689e-11
0, 0, 184, 1.736338711699759e-10
0, 0, 185, 7.949545188790097e-11
0, 0, 186, 1.852479419861552e-10
0, 0, 187, 1.126630524983518e-10
0, 0, 188, 1.040425592901961e-10
0, 0, 189, 5.248481510511382e-11
0, 0, 190, 5.20794206371189e-11
0, 0, 191, 1.284359424369441e-10
0, 0, 192, 1.203683680506273e-10
0, 0, 193, 7.296846460391748e-11
0, 0, 194, 6.046169120921263e-11
0, 0, 195, 1.497253848681268e-10
0, 0, 196, 9.619042368180786e-11
0, 0, 197, 7.440305316297469e-11
0, 0, 198, 7.92152593520612e-11
0, 0, 199, 8.775399851224108e-11
0, 0, 200, 4.975658773886948e-11
0, 0, 201, 1.233648461163028e-10
0, 0, 202, 1.202911381614769e-10
0, 0, 203, 1.627789708580352e-10
0, 0, 204, 4.092976998992803e-11
0, 0, 205, 9.340970358318046e-11
0, 0, 206, 1.187646092581929e-10
0, 0, 207, 1.067217841876911e-10
0, 0, 208, 9.958492364070537e-11
0, 0, 209, 3.237664580879596e-10
0, 0, 210, 9.927026561884489e-11
0, 0, 211, 7.32391369773211e-11
0, 0, 212, 6.94006865864516e-11
0, 0, 213, 8.746685320470959e-11
0, 0, 214, 1.220480938535218e-10
0, 0, 215, 1.053771028769468e-10
0, 0, 216, 1.726089410292175e-10
0, 0, 217, 1.106788966032113e-10
0, 0, 218, 1.396204957204716e-10
0, 0, 219, 1.373034602680789e-10
0, 0, 220, 1.482121925189261e-10
0, 0, 221, 1.281937334063343e-10
0, 0, 222, 1.43655948248167e-10
0, 0, 223, 1.795318893549336e-10
0, 0, 224, 9.129425687648407e-11
0, 0, 225, 4.081173454739684e-10
0, 0, 226, 1.07111867986287e-10
0, 0, 227, 1.163280097249419e-10
0, 0, 228, 2.331491943952102e-10
0, 0, 229, 1.994529402749023e-10
0, 0, 230, 1.475768673930844e-10
0, 0, 231, 1.848044078878175e-10
0, 0, 232, 1.332463445136156e-10
0, 0, 233, 1.523876719256023e-10
0, 0, 234, 2.073555355197598e-10
0, 0, 235, 1.634141849615744e-10
0, 0, 236, 1.828330542519296e-10
0, 0, 237, 1.038945179887563e-10
0, 0, 238, 1.126053625344348e-10
0, 0, 239, 8.838722809212385e-11
0, 0, 240, 8.69076338672059e-11
0, 0, 241, 1.682794736890258e-10
0, 0, 242, 1.91781410197045e-10
0, 0, 243, 1.783677372468873e-10
0, 0, 244, 1.48547188438819e-10
0, 0, 245, 2.376642493917558e-10
0, 0, 246, 3.011722815582374e-10
0, 0, 247, 1.873090849091597e-10
0, 0, 248, 1.159066106981577e-10
0, 0, 249, 9.808617806861264e-11
0, 0, 250, 3.166648609997935e-10
0, 0, 251, 2.161073958673043e-10
0, 0, 252, 1.529965182323068e-10
0, 0, 253, 1.866466564637292e-10
0, 0, 254, 1.216427930605946e-10
0, 0, 255, 1.206558880584296e-10
0, 0, 256, 8.747100266326413e-11
0, 0, 257, 1.073191188694089e-10
0, 0, 258, 1.124079371250808e-10
0, 0, 259, 8.552013958107452e-11
0, 0, 260, 1.573150498757059e-10
0, 0, 261, 1.121250869928758e-10
0, 0, 262, 1.068287194816442e-10
0, 0, 263, 1.539822852558714e-10
0, 0, 264, 1.873148303133121e-10
0, 0, 265, 1.387488041126872e-10
0, 0, 266, 1.837612423338797e-10
0, 0, 267, 3.694404782095262e-10
0, 0, 268, 3.350691113457316e-10
0, 0, 269, 5.574980477263125e-10
0, 0, 270, 6.838529742481114e-10
0, 0, 271, 9.825307234478942e-10
0, 0, 272, 1.232755009183961e-09
0, 0, 273, 1.720730224974432e-09
0, 0, 274, 2.355035055856547e-09
0, 0, 275, 3.427332417871298e-09
0, 0, 276, 4.56983917374032e-09
0, 0, 277, 5.523751234193242e-09
0, 0, 278, 6.941236918578397e-09
0, 0, 279, 8.897524494955178e-09
0, 0, 280, 1.1227162310945e-08
0, 0, 281, 1.292208651193505e-08
0, 0, 282, 1.506349178725941e-08
0, 0, 283, 1.77846768423251e-08
0, 0, 284, 2.008913568829485e-08
0, 0, 285, 2.299770684999203e-08
0, 0, 286, 2.55811070104528e-08
0, 0, 287, 2.821361810845247e-08
0, 0, 288, 3.137501991545832e-08
0, 0, 289, 3.353931177230152e-08
0, 0, 290, 3.572840157062274e-08
0, 0, 291, 3.758316680091411e-08
0, 0, 292, 3.862556496869729e-08
0, 0, 293, 4.076737170066735e-08
0, 0, 294, 4.244869700187337e-08
0, 0, 295, 4.395795727418772e-08
0, 0, 296, 4.399003117327993e-08
0, 0, 297, 4.391496943867423e-08
0, 0, 298, 4.396066444201097e-08
0, 0, 299, 4.369358208577978e-08
0, 0, 300, 4.335839776103967e-08
0, 0, 301, 4.277277554365355e-08
0, 0, 302, 4.200490266725865e-08
0, 0, 303, 4.161599420626771e-08
0, 0, 304, 4.059046432303148e-08
0, 0, 305, 3.978071561050456e-08
0, 0, 306, 3.914970392315809e-08
0, 0, 307, 3.776060353288813e-08
0, 0, 308, 3.68008663542696e-08
0, 0, 309, 3.582254137768359e-08
0, 0, 310, 3.5680461252241e-08
0, 0, 311, 3.444570495503285e-08
0, 0, 312, 3.369502721284334e-08
0, 0, 313, 3.340230136927858e-08
0, 0, 314, 3.279810201206601e-08
0, 0, 315, 3.186375607810987e-08
0, 0, 316, 3.124440084434355e-08
0, 0, 317, 3.101164836039061e-08
0, 0, 318, 3.018015348743575e-08
0, 0, 319, 2.97338917931711e-08
0, 0, 320, 2.912292984547094e-08
0, 0, 321, 2.894676853770761e-08
0, 0, 322, 2.851412617133064e-08
0, 0, 323, 2.797721165848088e-08
0, 0, 324, 2.763129103300344e-08
0, 0, 325, 2.752350880541599e-08
0, 0, 326, 2.704771873140999e-08
0, 0, 327, 2.664061504731308e-08
0, 0, 328, 2.634643792021052e-08
0, 0, 329, 2.618713246249627e-08
0, 0, 330, 2.581566427295456e-08
0, 0, 331, 2.564777545899233e-08
0, 0, 332, 2.547889899062739e-08
0, 0, 333, 2.507317198308101e-08
0, 0, 334, 2.482602923237209e-08
0, 0, 335, 2.489737838118344e-08
0, 0, 336, 2.466696891190168e-08
0, 0, 337, 2.45203448656639e-08
0, 0, 338, 2.407440291563034e-08
0, 0, 339, 2.377282548593485e-08
0, 0, 340, 2.346471283942719e-08
0, 0, 341, 2.318217617869323e-08
0, 0, 342, 2.328658688099949e-08
0, 0, 343, 2.303622892441126e-08
0, 0, 344, 2.277592869859291e-08
0, 0, 345, 2.27464607149841e-08
0, 0, 346, 2.261030473960091e-08
0, 0, 347, 2.252066089170057e-08
0, 0, 348, 2.24151861516475e-08
0, 0, 349, 2.229404927334144e-08
0, 0, 350, 2.181678837587242e-08
0, 0, 351, 2.163753087813802e-08
0, 0, 352, 2.142218669121121e-08
0, 0, 353, 2.095378981437079e-08
0, 0, 354, 2.11055866117249e-08
0, 0, 355, 2.125470111025152e-08
0, 0, 356, 2.167040946687848e-08
0, 0, 357, 2.104459007057358e-08
0, 0, 358, 2.098821028084785e-08
0, 0, 359, 2.092803796927001e-08
0, 0, 360, 2.07217514258673e-08
0, 0, 361, 2.081129046871411e-08
0, 0, 362, 2.035055324256518e-08
0, 0, 363, 2.012481203905736e-08
0, 0, 364, 2.01459542381599e-08
0, 0, 365, 2.016065359100594e-08
0, 0, 366, 2.038305524365569e-08
0, 0, 367, 2.020609457531464e-08
0, 0, 368, 2.018419742455535e-08
0, 0, 369, 1.978279229319924e-08
0, 0, 370, 1.963116780245855e-08
0, 0, 371, 1.955263506658866e-08
0, 0, 372, 1.956003714553844e-08
0, 0, 373, 1.931992521519987e-08
0, 0, 374, 1.952707684438337e-08
0, 0, 375, 1.927129744672129e-08
0, 0, 376, 1.91966460505455e-08
0, 0, 377, 1.921491765699557e-08
0, 0, 378, 1.925911519151668e-08
0, 0, 379, 1.92946068011679e-08
0, 0, 380, 1.900844992519524e-08
0, 0, 381, 1.891077694438081e-08
0, 0, 382, 1.901299562234726e-08
0, 0, 383, 1.876799160527298e-08
0, 0, 384, 1.87036111043426e-08
0, 0, 385, 1.863810794588971e-08
0, 0, 386, 1.855915598980573e-08
0, 0, 387, 1.848042785468351e-08
0, 0, 388, 1.838320784486314e-08
0, 0, 389, 1.841463159735213e-08
0, 0, 390, 1.845747732431846e-08
0, 0, 391, 1.812548333646191e-08
0, 0, 392, 1.824416706597276e-08
0, 0, 393, 1.810684402414608e-08
0, 0, 394, 1.811129557438562e-08
0, 0, 395, 1.802067473022362e-08
0, 0, 396, 1.861455345419927e-08
0, 0, 397, 1.825303108660137e-08
0, 0, 398, 1.805791782771848e-08
0, 0, 399, 1.798247062367864e-08
0, 0, 400, 1.789070935842574e-08
0, 0, 401, 1.769410040708408e-08
0, 0, 402, 1.772702162838868e-08
0, 0, 403, 1.761699763846991e-08
0, 0, 404, 1.746937350333155e-08
0, 0, 405, 1.758334455814747e-08
0, 0, 406, 1.749463329758782e-08
0, 0, 407, 1.754691680844189e-08
0, 0, 408, 1.765569912492992e-08
0, 0, 409, 1.746403555102916e-08
0, 0, 410, 1.743628530448404e-08
0, 0, 411, 1.760166057351853e-08
0, 0, 412, 1.718076880763419e-08
0, 0, 413, 1.716027497877803e-08
0, 0, 414, 1.756927225926574e-08
0, 0, 415, 1.730736798322141e-08
0, 0, 416, 1.753478784394247e-08
0, 0, 417, 1.727560317021926e-08
0, 0, 418, 1.738313315513551e-08
0, 0, 419, 1.706065511086763e-08
0, 0, 420, 1.69836713581617e-08
0, 0, 421, 1.739607391471054e-08
0, 0, 422, 1.702882101994874e-08
0, 0, 423, 1.704497520904624e-08
0, 0, 424, 1.667964788509835e-08
0, 0, 425, 1.668869842319509e-08
0, 0, 426, 1.689475581656552e-08
0, 0, 427, 1.641236657690115e-08
0, 0, 428, 1.662215431963432e-08
0, 0, 429, 1.667494942125813e-08
0, 0, 430, 1.650748693293735e-08
0, 0, 431, 1.665385518379026e-08
0, 0, 432, 1.65348374991936e-08
0, 0, 433, 1.654111514426404e-08
0, 0, 434, 1.645561376051319e-08
0, 0, 435, 1.635899238294769e-08
0, 0, 436, 1.640472646613489e-08
0, 0, 437, 1.636035307228667e-08
0, 0, 438, 1.647989122943727e-08
0, 0, 439, 1.654318992905246e-08
0, 0, 440, 1.62058935160303e-08
0, 0, 441, 1.667035398611461e-08
0, 0, 442, 1.62694497873872e-08
0, 0, 443, 1.621738832113806e-08
0, 0, 444, 1.620726486351032e-08
0, 0, 445, 1.61790136843365e-08
0, 0, 446, 1.617136824449972e-08
0, 0, 447, 1.592942666661656e-08
0, 0, 448, 1.604572297253526e-08
0, 0, 449, 1.605475752342045e-08
0, 0, 450, 1.620409584290883e-08
0, 0, 451, 1.592491649660133e-08
0, 0, 452, 1.570315433241376e-08
0, 0, 453, 1.595735632520245e-08
0, 0, 454, 1.601979704446421e-08
0, 0, 455, 1.599414289898959e-08
0, 0, 456, 1.57579567172661e-08
0, 0, 457, 1.569191532269087e-08
0, 0, 458, 1.568596275092204e-08
0, 0, 459, 1.577970465405087e-08
0, 0, 460, 1.563592455511298e-08
0, 0, 461, 1.563135931803572e-08
0, 0, 462, 1.583819297934497e-08
0, 0, 463, 1.58967505825558e-08
0, 0, 464, 1.569810237356251e-08
0, 0, 465, 1.565598140018665e-08
0, 0, 466, 1.585261344416722e-08
0, 0, 467, 1.586649567286713e-08
0, 0, 468, 1.617500977602049e-08
0, 0, 469, 1.566630025706672e-08
0, 0, 470, 1.555273065889651e-08
0, 0, 471, 1.547300776394422e-08
0, 0, 472, 1.527466508832731e-08
0, 0, 473, 1.523459225438728e-08
0, 0, 474, 1.5276427234312e-08
0, 0, 475, 1.536340121788271e-08
0, 0, 476, 1.53935850732978e-08
0, 0, 477, 1.534280791304354e-08
0, 0, 478, 1.560833950975393e-08
0, 0, 479, 1.552924011605228e-08
0, 0, 480, 1.52876715731054e-08
0, 0, 481, 1.516047021254963e-08
0, 0, 482, 1.502854019008737e-08
0, 0, 483, 1.496662349609323e-08
0, 0, 484, 1.502202806591413e-08
0, 0, 485, 1.488819734163371e-08
0, 0, 486, 1.492640855360605e-08
0, 0, 487, 1.501546620374938e-08
0, 0, 488, 1.499814672456523e-08
0, 0, 489, 1.511534541975834e-08
0, 0, 490, 1.517959447028261e-08
0, 0, 491, 1.520222880913025e-08
0, 0, 492, 1.547650718691784e-08
0, 0, 493, 1.498506918551357e-08
0, 0, 494, 1.488830125850882e-08
0, 0, 495, 1.537627802861152e-08
0, 0, 496, 1.515411440777825e-08
0, 0, 497, 1.525392967494099e-08
0, 0, 498, 1.49960399653537e-08
0, 0, 499, 1.504868585300301e-08
0, 0, 500, 1.481926847901605e-08
0, 0, 501, 1.479959799155495e-08
0, 0, 502, 1.481184597196261e-08
0, 0, 503, 1.481344558129649e-08
0, 0, 504, 1.482463574120629e-08
0, 0, 505, 1.483307698890712e-08
0, 0, 506, 1.479818845240288e-08
0, 0, 507, 1.462074461500151e-08
0, 0, 508, 1.507013713819561e-08
0, 0, 509, 1.458725407132988e-08
0, 0, 510, 1.462501142412975e-08
0, 0, 511, 1.468338250987244e-08
0, 0, 512, 1.504801083740404e-08
0, 0, 513, 1.501705781947749e-08
0, 0, 514, 1.482696720955801e-08
0, 0, 515, 1.464320131816521e-08
0, 0, 516, 1.474513400268052e-08
0, 0, 517, 1.452543596514033e-08
0, 0, 518, 1.462525123230307e-08
0, 0, 519, 1.447765285433888e-08
0, 0, 520, 1.468132726500926e-08
0, 0, 521, 1.48417411693913e-08
0, 0, 522, 1.443122155109222e-08
0, 0, 523, 1.443255293054335e-08
0, 0, 524, 1.465342336359754e-08
0, 0, 525, 1.488337186827948e-08
0, 0, 526, 1.442124730743899e-08
0, 0, 527, 1.463006427115943e-08
0, 0, 528, 1.437484975497227e-08
0, 0, 529, 1.466931198734756e-08
0, 0, 530, 1.474644406584957e-08
0, 0, 531, 1.458678866583796e-08
0, 0, 532, 1.443065489326045e-08
0, 0, 533, 1.461368714927858e-08
0, 0, 534, 1.428370488554265e-08
0, 0, 535, 1.41362166417025e-08
0, 0, 536, 1.427901086259453e-08
0, 0, 537, 1.450818665205134e-08
0, 0, 538, 1.463461529738197e-08
0, 0, 539, 1.428663853886292e-08
0, 0, 540, 1.455189746479846e-08
0, 0, 541, 1.437304053553135e-08
0, 0, 542, 1.439568109162792e-08
0, 0, 543, 1.428761997601669e-08
0, 0, 544, 1.442153596542539e-08
0, 0, 545, 1.40269351689426e-08
0, 0, 546, 1.434933505350955e-08
0, 0, 547, 1.425249784858806e-08
0, 0, 548, 1.44959129144695e-08
0, 0, 549, 1.430970630877937e-08
0, 0, 550, 1.423895046315238e-08
0, 0, 551, 1.442958108555104e-08
0, 0, 552, 1.433290996999403e-08
0, 0, 553, 1.409487904169282e-08
0, 0, 554, 1.438077745774535e-08
0, 0, 555, 1.413398820204748e-08
0, 0, 556, 1.438280605725595e-08
0, 0, 557, 1.450130771019076e-08
0, 0, 558, 1.434265772815024e-08
0, 0, 559, 1.430560558901561e-08
0, 0, 560, 1.39862956771708e-08
0, 0, 561, 1.406804717163368e-08
0, 0, 562, 1.408462679819422e-08
0, 0, 563, 1.394770787754851e-08
0, 0, 564, 1.393737925070582e-08
0, 0, 565, 1.386912984457922e-08
0, 0, 566, 1.401590665750518e-08
0, 0, 567, 1.419620865306115e-08
0, 0, 568, 1.408127658919511e-08
0, 0, 569, 1.405355654071627e-08
0, 0, 570, 1.381459568960963e-08
0, 0, 571, 1.378037861599068e-08
0, 0, 572, 1.369333535450323e-08
0, 0, 573, 1.366801694047126e-08
0, 0, 574, 1.384179348917769e-08
0, 0, 575, 1.389882076097138e-08
0, 0, 576, 1.383012548927809e-08
0, 0, 577, 1.387006864916884e-08
0, 0, 578, 1.396275273179981e-08
0, 0, 579, 1.4139485138287e-08
0, 0, 580, 1.390256088029673e-08
0, 0, 581, 1.357996115558535e-08
0, 0, 582, 1.407521565965908e-08
0, 0, 583, 1.399169136107048e-08
0, 0, 584, 1.409104832816865e-08
0, 0, 585, 1.36527260607977e-08
0, 0, 586, 1.351939893368126e-08
0, 0, 587, 1.347555400599276e-08
0, 0, 588, 1.366559221338548e-08
0, 0, 589, 1.365711010947734e-08
0, 0, 590, 1.380066017020454e-08
0, 0, 591, 1.361930923593491e-08
0, 0, 592, 1.357759416009685e-08
0, 0, 593, 1.4006213966411e-08
0, 0, 594, 1.341819988454063e-08
0, 0, 595, 1.317085907004412e-08
0, 0, 596, 1.344317546170259e-08
0, 0, 597, 1.375340019649229e-08
0, 0, 598, 1.387255466056558e-08
0, 0, 599, 1.387419956699887e-08
0, 0, 600, 1.376807290398574e-08
0, 0, 601, 1.35360913589011e-08
0, 0, 602, 1.347851608102246e-08
0, 0, 603, 1.345438960242973e-08
0, 0, 604, 1.392344994854966e-08
0, 0, 605, 1.344964051241959e-08
0, 0, 606, 1.361300672186871e-08
0, 0, 607, 1.332112731233792e-08
0, 0, 608, 1.323982790069067e-08
0, 0, 609, 1.34262236883842e-08
0, 0, 610, 1.346886424613558e-08
0, 0, 611, 1.325452814171513e-08
0, 0, 612, 1.321503084739106e-08
0, 0, 613, 1.342451216856944e-08
0, 0, 614, 1.322043630125336e-08
0, 0, 615, 1.315579289951074e-08
0, 0, 616, 1.315150122138675e-08
0, 0, 617, 1.301546337373338e-08
0, 0, 618, 1.351344192102033e-08
0, 0, 619, 1.34427429188122e-08
0, 0, 620, 1.332286903021895e-08
0, 0, 621, 1.332146570831583e-08
0, 0, 622, 1.334999222279976e-08
0, 0, 623, 1.337070365536874e-08
0, 0, 624, 1.342113709057458e-08
0, 0, 625, 1.39136639987214e-08
0, 0, 626, 1.367326962764537e-08
0, 0, 627, 1.376604785718882e-08
0, 0, 628, 1.349439493480986e-08
0, 0, 629, 1.304144614522329e-08
0, 0, 630, 1.315573516791346e-08
0, 0, 631, 1.336695287790235e-08
0, 0, 632, 1.362978441221685e-08
0, 0, 633, 1.333825583316184e-08
0, 0, 634, 1.353725043173881e-08
0, 0, 635, 1.336490118575284e-08
0, 0, 636, 1.350012546197377e-08
0, 0, 637, 1.354694489918984e-08
0, 0, 638, 1.334355914650587e-08
0, 0, 639, 1.346961742143549e-08
0, 0, 640, 1.382437009311843e-08
0, 0, 641, 1.324147635983763e-08
0, 0, 642, 1.297468976702021e-08
0, 0, 643, 1.294535767470961e-08
0, 0, 644, 1.344471201036868e-08
0, 0, 645, 1.293174634042771e-08
0, 0, 646, 1.323504861261426e-08
0, 0, 647, 1.322338860632044e-08
0, 0, 648, 1.300057395070553e-08
0, 0, 649, 1.330148968747835e-08
0, 0, 650, 1.310746711169486e-08
0, 0, 651, 1.311163622119693e-08
0, 0, 652, 1.324394016677388e-08
0, 0, 653, 1.332890597893766e-08
0, 0, 654, 1.344418532056579e-08
0, 0, 655, 1.327382204152627e-08
0, 0, 656, 1.331064947152072e-08
0, 0, 657, 1.329253684900777e-08
0, 0, 658, 1.322057663344367e-08
0, 0, 659, 1.340003219496566e-08
0, 0, 660, 1.313296849048129e-08
0, 0, 661, 1.299572005564187e-08
0, 0, 662, 1.305846719645842e-08
0, 0, 663, 1.299126051179655e-08
0, 0, 664, 1.286143902490267e-08
0, 0, 665, 1.276635064328957e-08
0, 0, 666, 1.305042918176014e-08
0, 0, 667, 1.300861551811749e-08
0, 0, 668, 1.321376341678615e-08
0, 0, 669, 1.32419932796779e-08
0, 0, 670, 1.277360439644326e-08
0, 0, 671, 1.302154561955149e-08
0, 0, 672, 1.264952764756799e-08
0, 0, 673, 1.265583904341838e-08
0, 0, 674, 1.266618898654315e-08
0, 0, 675, 1.257270998422655e-08
0, 0, 676, 1.277534966703797e-08
0, 0, 677, 1.322205545051247e-08
0, 0, 678, 1.259464799119314e-08
0, 0, 679, 1.281818029497117e-08
0, 0, 680, 1.260298532201887e-08
0, 0, 681, 1.256758430656646e-08
0, 0, 682, 1.280197636788216e-08
0, 0, 683, 1.279038475132666e-08
0, 0, 684, 1.266065297045316e-08
0, 0, 685, 1.294415685748618e-08
0, 0, 686, 1.266222060536393e-08
0, 0, 687, 1.286890860541234e-08
0, 0, 688, 1.259243376239283e-08
0, 0, 689, 1.269560634398204e-08
0, 0, 690, 1.273196037487878e-08
0, 0, 691, 1.264177207360717e-08
0, 0, 692, 1.245686043205296e-08
0, 0, 693, 1.244244618447965e-08
0, 0, 694, 1.244684799672768e-08
0, 0, 695, 1.240046643147252e-08
0, 0, 696, 1.22899441734603e-08
0, 0, 697, 1.240318070472313e-08
0, 0, 698, 1.247793779413087e-08
0, 0, 699, 1.260361859323211e-08
0, 0, 700, 1.28262112042421e-08
0, 0, 701, 1.242206870699647e-08
0, 0, 702, 1.237771041218139e-08
0, 0, 703, 1.248499881256748e-08
0, 0, 704, 1.278520223024771e-08
0, 0, 705, 1.256292758711197e-08
0, 0, 706, 1.257504145257826e-08
0, 0, 707, 1.247290892791852e-08
0, 0, 708, 1.262818294378576e-08
0, 0, 709, 1.283055972578495e-08
0, 0, 710, 1.292797424667924e-08
0, 0, 711, 1.263758164782303e-08
0, 0, 712, 1.2373887692263e-08
0, 0, 713, 1.267688976014369e-08
0, 0, 714, 1.253703985071297e-08
0, 0, 715, 1.242540914603296e-08
0, 0, 716, 1.252671744111922e-08
0, 0, 717, 1.243681779783401e-08
0, 0, 718, 1.211099664999438e-08
0, 0, 719, 1.230123647388837e-08
0, 0, 720, 1.221648382454532e-08
0, 0, 721, 1.22660628321114e-08
0, 0, 722, 1.215698564038803e-08
0, 0, 723, 1.217712686241157e-08
0, 0, 724, 1.223134127315006e-08
0, 0, 725, 1.222405909828694e-08
0, 0, 726, 1.216658507274815e-08
0, 0, 727, 1.244734715299955e-08
0, 0, 728, 1.25347510149254e-08
0, 0, 729, 1.240726898998901e-08
0, 0, 730, 1.270360794336511e-08
0, 0, 731, 1.250471193259273e-08
0, 0, 732, 1.247948855365166e-08
0, 0, 733, 1.224151002787721e-08
0, 0, 734, 1.210090871950342e-08
0, 0, 735, 1.221186440858446e-08
0, 0, 736, 1.220059608897373e-08
0, 0, 737, 1.208125599561072e-08
0, 0, 738, 1.207091582244857e-08
0, 0, 739, 1.227788448687761e-08
0, 0, 740, 1.237113878005403e-08
0, 0, 741, 1.238657798552367e-08
0, 0, 742, 1.26321477722513e-08
0, 0, 743, 1.241731606427265e-08
0, 0, 744, 1.248041492374341e-08
0, 0, 745, 1.264668991751705e-08
0, 0, 746, 1.282609041197702e-08
0, 0, 747, 1.23860335321524e-08
0, 0, 748, 1.256470039123769e-08
0, 0, 749, 1.234629021240607e-08
0, 0, 750, 1.224192125448553e-08
0, 0, 751, 1.267412663708001e-08
0, 0, 752, 1.238112368184829e-08
0, 0, 753, 1.283256345629979e-08
0, 0, 754, 1.217176937018394e-08
0, 0, 755, 1.230530610740743e-08
0, 0, 756, 1.232915547433322e-08
0, 0, 757, 1.225961376860596e-08
0, 0, 758, 1.221267442730323e-08
0, 0, 759, 1.257774240315257e-08
0, 0, 760, 1.226420831557107e-08
0, 0, 761, 1.231854440675306e-08
0, 0, 762, 1.215744127591734e-08
0, 0, 763, 1.202886057427577e-08
0, 0, 764, 1.234131197236366e-08
0, 0, 765, 1.209598288198777e-08
0, 0, 766, 1.218506096023475e-08
0, 0, 767, 1.206574395951066e-08
0, 0, 768, 1.215402978260727e-08
0, 0, 769, 1.199664101392273e-08
0, 0, 770, 1.217559475463759e-08
0, 0, 771, 1.210531497264355e-08
0, 0, 772, 1.232308299847773e-08
0, 0, 773, 1.212663036653794e-08
0, 0, 774, 1.191024701086008e-08
0, 0, 775, 1.185394093994319e-08
0, 0, 776, 1.178485131703155e-08
0, 0, 777, 1.178675201884971e-08
0, 0, 778, 1.221691370290046e-08
0, 0, 779, 1.216223033395636e-08
0, 0, 780, 1.178157660319812e-08
0, 0, 781, 1.172902575063972e-08
0, 0, 782, 1.207835076399988e-08
0, 0, 783, 1.203800703564184e-08
0, 0, 784, 1.195472254522656e-08
0, 0, 785, 1.187977005656649e-08
0, 0, 786, 1.196794752189589e-08
0, 0, 787, 1.224971590829682e-08
0, 0, 788, 1.206285382693295e-08
0, 0, 789, 1.208995303869642e-08
0, 0, 790, 1.194787468961067e-08
0, 0, 791, 1.232470570045052e-08
0, 0, 792, 1.21541576802997e-08
0, 0, 793, 1.241853286870764e-08
0, 0, 794, 1.2351732969762e-08
0, 0, 795, 1.237188662628341e-08
0, 0, 796, 1.198243282374278e-08
0, 0, 797, 1.204465327475646e-08
0, 0, 798, 1.204965816015147e-08
0, 0, 799, 1.211792088895436e-08
0, 0, 800, 1.216435219220102e-08
0, 0, 801, 1.210021860487132e-08
0, 0, 802, 1.189538867407691e-08
0, 0, 803, 1.18639729151937e-08
0, 0, 804, 1.194040333274415e-08
0, 0, 805, 1.241765890114266e-08
0, 0, 806, 1.241910041471783e-08
0, 0, 807, 1.227877355347573e-08
0, 0, 808, 1.207008981651825e-08
0, 0, 809, 1.209767219734204e-08
0, 0, 810, 1.223268597527749e-08
0, 0, 811, 1.245525993454066e-08
0, 0, 812, 1.219115031148021e-08
0, 0, 813, 1.194987220287658e-08
0, 0, 814, 1.195800702902261e-08
0, 0, 815, 1.179535313866609e-08
0, 0, 816, 1.222788270638375e-08
0, 0, 817, 1.237755054006584e-08
0, 0, 818, 1.188266107732261e-08
0, 0, 819, 1.186964659893874e-08
0, 0, 820, 1.20868230979454e-08
0, 0, 821, 1.208107391903468e-08
0, 0, 822, 1.200852839389199e-08
0, 0, 823, 1.186864206914606e-08
0, 0, 824, 1.202869626126812e-08
0, 0, 825, 1.195053744851293e-08
0, 0, 826, 1.201723964783241e-08
0, 0, 827, 1.218263001590003e-08
0, 0, 828, 1.193106236030417e-08
0, 0, 829, 1.205581501295683e-08
0, 0, 830, 1.172808072880116e-08
0, 0, 831, 1.177493569315402e-08
0, 0, 832, 1.188254028505753e-08
0, 0, 833, 1.204082433758913e-08
0, 0, 834, 1.176607700159593e-08
0, 0, 835, 1.207061295360745e-08
0, 0, 836, 1.215858436154349e-08
0, 0, 837, 1.18802123694195e-08
0, 0, 838, 1.181393294302779e-08
0, 0, 839, 1.18289102957192e-08
0, 0, 840, 1.19520420227559e-08
0, 0, 841, 1.170131280758824e-08
0, 0, 842, 1.182691278245329e-08
0, 0, 843, 1.179985620325397e-08
0, 0, 844, 1.188955867093e-08
0, 0, 845, 1.200819887969828e-08
0, 0, 846, 1.164322771529669e-08
0, 0, 847, 1.166459195900416e-08
0, 0, 848, 1.18263452364431e-08
0, 0, 849, 1.22248957623583e-08
0, 0, 850, 1.214498812629472e-08
0, 0, 851, 1.216075506960124e-08
0, 0, 852, 1.193562404466775e-08
0, 0, 853, 1.207477229314691e-08
0, 0, 854, 1.223510093240066e-08
0, 0, 855, 1.173487174099819e-08
0, 0, 856, 1.176622532739202e-08
0, 0, 857, 1.195534071740667e-08
0, 0, 858, 1.201753452306775e-08
0, 0, 859, 1.181363629143561e-08
0, 0, 860, 1.155070883385179e-08
0, 0, 861, 1.148640826897918e-08
0, 0, 862, 1.149792971943953e-08
0, 0, 863, 1.173358388228962e-08
0, 0, 864, 1.150863493393217e-08
0, 0, 865, 1.169083407859262e-08
0, 0, 866, 1.163148333205299e-08
0, 0, 867, 1.162600327120344e-08
0, 0, 868, 1.158910922782752e-08
0, 0, 869, 1.1510340236498e-08
0, 0, 870, 1.155101880812026e-08
0, 0, 871, 1.167359808817992e-08
0, 0, 872, 1.180266906430916e-08
0, 0, 873, 1.17732801285797e-08
0, 0, 874, 1.153594020308901e-08
0, 0, 875, 1.144509109707315e-08
0, 0, 876, 1.156608764318889e-08
0, 0, 877, 1.171551566869766e-08
0, 0, 878, 1.139224359292257e-08
0, 0, 879, 1.147824058023161e-08
0, 0, 880, 1.172487973377656e-08
0, 0, 881, 1.152682926885973e-08
0, 0, 882, 1.188107034977293e-08
0, 0, 883, 1.153492235062004e-08
0, 0, 884, 1.142606809168001e-08
0, 0, 885, 1.148266104422646e-08
0, 0, 886, 1.177616759662214e-08
0, 0, 887, 1.16760858759335e-08
0, 0, 888, 1.183798037374117e-08
0, 0, 889, 1.173582564462095e-08
0, 0, 890, 1.148031003594951e-08
0, 0, 891, 1.129283155876237e-08
0, 0, 892, 1.179684883112486e-08
0, 0, 893, 1.185256870428475e-08
0, 0, 894, 1.15861418237273e-08
0, 0, 895, 1.177782404937489e-08
0, 0, 896, 1.171141761346917e-08
0, 0, 897, 1.153001694120803e-08
0, 0, 898, 1.142252248342857e-08
0, 0, 899, 1.140052496850785e-08
0, 0, 900, 1.178339115170957e-08
0, 0, 901, 1.113191672175162e-08
0, 0, 902, 1.139915983827677e-08
0, 0, 903, 1.154531670266579e-08
0, 0, 904, 1.169324459482368e-08
0, 0, 905, 1.15304530368121e-08
0, 0, 906, 1.156550144543189e-08
0, 0, 907, 1.144566574851069e-08
