# TOPAS Version: 3.9
# Parameter File: ./bragg_peak/jobs/job6.txt
# Results for scorer: DoseScorer
# Scored in component: Phantom
# R in 1 bin  of 15 cm
# Phi in 1 bin  of 360 deg
# Z in 1000 bins of 0.04 cm
# DoseToMedium ( Gy ) : Sum   
0, 0, 0, 3.605316045707241e-11
0, 0, 1, 5.909464584341606e-11
0, 0, 2, 4.65618411882307e-11
0, 0, 3, 3.989870586695865e-11
0, 0, 4, 5.931889007770863e-11
0, 0, 5, 3.964107861409438e-11
0, 0, 6, 5.193752372623095e-11
0, 0, 7, 6.773585858876885e-11
0, 0, 8, 4.579911103141932e-11
0, 0, 9, 4.055470195774014e-11
0, 0, 10, 7.695603182478195e-11
0, 0, 11, 5.404062961011924e-11
0, 0, 12, 5.814632109135687e-11
0, 0, 13, 6.125172591353589e-11
0, 0, 14, 4.013555113258072e-11
0, 0, 15, 3.104240822726645e-11
0, 0, 16, 3.226828526603498e-11
0, 0, 17, 4.894616309480959e-11
0, 0, 18, 3.652112293139886e-11
0, 0, 19, 2.59709840438882e-11
0, 0, 20, 3.329491543579977e-11
0, 0, 21, 6.10178504945047e-11
0, 0, 22, 7.665994922190222e-11
0, 0, 23, 3.559954067644533e-11
0, 0, 24, 3.401362871913172e-11
0, 0, 25, 3.195927550381228e-11
0, 0, 26, 1.939641676440562e-11
0, 0, 27, 1.804054128307087e-11
0, 0, 28, 3.40328598635864e-11
0, 0, 29, 2.813222051145647e-11
0, 0, 30, 3.068268902839399e-11
0, 0, 31, 7.280472752446698e-11
0, 0, 32, 5.464995123105609e-11
0, 0, 33, 7.354952064053677e-11
0, 0, 34, 5.835426586386916e-11
0, 0, 35, 5.557412169343579e-11
0, 0, 36, 7.24977092247947e-11
0, 0, 37, 3.951675098257112e-11
0, 0, 38, 2.746361991989854e-11
0, 0, 39, 3.841378951041641e-11
0, 0, 40, 3.298429931963831e-11
0, 0, 41, 2.200313022060474e-11
0, 0, 42, 2.927597747559574e-11
0, 0, 43, 4.324568481095525e-11
0, 0, 44, 4.993933391816974e-11
0, 0, 45, 4.226819588781794e-11
0, 0, 46, 3.541786308680628e-11
0, 0, 47, 3.887570820815256e-11
0, 0, 48, 3.242072235676297e-11
0, 0, 49, 3.020392616570611e-11
0, 0, 50, 3.581599600233076e-11
0, 0, 51, 5.655422657957487e-11
0, 0, 52, 3.704157813810838e-11
0, 0, 53, 3.755065702826244e-11
0, 0, 54, 1.765885528082212e-11
0, 0, 55, 2.862408747528189e-11
0, 0, 56, 4.420736346433252e-11
0, 0, 57, 4.494738262139641e-11
0, 0, 58, 1.999845428146685e-11
0, 0, 59, 5.224942006831768e-11
0, 0, 60, 4.009629087087241e-11
0, 0, 61, 3.574210372114806e-11
0, 0, 62, 3.153551031420676e-11
0, 0, 63, 1.167274610303082e-10
0, 0, 64, 3.986164523461788e-11
0, 0, 65, 3.504494264228164e-11
0, 0, 66, 3.957512442753774e-11
0, 0, 67, 4.629620645180132e-11
0, 0, 68, 1.188999315671069e-10
0, 0, 69, 6.476676139843818e-11
0, 0, 70, 4.930802988134531e-11
0, 0, 71, 5.119788273888481e-11
0, 0, 72, 6.351068282395289e-11
0, 0, 73, 2.806731236315585e-11
0, 0, 74, 2.581733611617398e-11
0, 0, 75, 3.192978520472067e-11
0, 0, 76, 7.072541163832824e-11
0, 0, 77, 6.93806193052815e-11
0, 0, 78, 1.5166956232604e-11
0, 0, 79, 1.021073087192903e-10
0, 0, 80, 4.436910214233869e-11
0, 0, 81, 4.852549265188522e-11
0, 0, 82, 2.702112700259107e-10
0, 0, 83, 1.088276274652245e-10
0, 0, 84, 2.524659474534285e-11
0, 0, 85, 1.492105224099038e-11
0, 0, 86, 8.955416269662564e-11
0, 0, 87, 2.466635784514892e-10
0, 0, 88, 8.266743539708798e-11
0, 0, 89, 4.831183370024306e-11
0, 0, 90, 2.613995304934225e-11
0, 0, 91, 3.051469493753345e-11
0, 0, 92, 3.792911471012239e-11
0, 0, 93, 7.028002485531815e-11
0, 0, 94, 6.4831619239758e-11
0, 0, 95, 7.394549556005714e-11
0, 0, 96, 4.068341497021066e-11
0, 0, 97, 4.111650603322303e-11
0, 0, 98, 3.411350715798456e-11
0, 0, 99, 3.130438616660847e-11
0, 0, 100, 4.700659306244859e-11
0, 0, 101, 6.742912478374663e-11
0, 0, 102, 7.755743963722139e-11
0, 0, 103, 5.712886760878e-11
0, 0, 104, 4.550815280168763e-11
0, 0, 105, 3.713396604099195e-11
0, 0, 106, 1.023035336999989e-10
0, 0, 107, 5.695428156871074e-11
0, 0, 108, 4.547416609934629e-11
0, 0, 109, 4.619959276253027e-11
0, 0, 110, 6.111076922277192e-11
0, 0, 111, 4.233875749992677e-11
0, 0, 112, 8.112951283001379e-11
0, 0, 113, 7.632931092738104e-11
0, 0, 114, 5.316439649627469e-11
0, 0, 115, 5.092075719415057e-11
0, 0, 116, 5.395743227221139e-11
0, 0, 117, 4.106100875977958e-11
0, 0, 118, 1.352473827376244e-10
0, 0, 119, 3.548827551269618e-11
0, 0, 120, 3.90759299917498e-11
0, 0, 121, 7.88966600384633e-11
0, 0, 122, 7.922866529508354e-11
0, 0, 123, 1.18633824985892e-10
0, 0, 124, 6.229862459239399e-11
0, 0, 125, 5.630553315261189e-11
0, 0, 126, 7.996850404090594e-11
0, 0, 127, 1.292798645913251e-10
0, 0, 128, 7.780986271965773e-11
0, 0, 129, 5.415704343314509e-11
0, 0, 130, 3.961542205388469e-11
0, 0, 131, 4.087279820153e-11
0, 0, 132, 6.928552870322235e-11
0, 0, 133, 7.11712702661238e-11
0, 0, 134, 1.622229295339395e-10
0, 0, 135, 4.273949597011217e-11
0, 0, 136, 2.362010864676023e-10
0, 0, 137, 1.039948890890763e-10
0, 0, 138, 3.15696704888957e-11
0, 0, 139, 1.252956349784284e-10
0, 0, 140, 8.253007305336624e-11
0, 0, 141, 8.745359297845923e-11
0, 0, 142, 2.020546507885967e-10
0, 0, 143, 3.841578791186073e-11
0, 0, 144, 3.880223919949799e-11
0, 0, 145, 5.726973062447627e-11
0, 0, 146, 3.404341392121424e-11
0, 0, 147, 7.311227318007596e-11
0, 0, 148, 6.369635374703364e-11
0, 0, 149, 9.505295855971596e-11
0, 0, 150, 8.066274037599186e-11
0, 0, 151, 7.813859975724924e-11
0, 0, 152, 6.747407493845614e-11
0, 0, 153, 6.031274091267136e-11
0, 0, 154, 6.868815238814108e-11
0, 0, 155, 2.934355883277284e-11
0, 0, 156, 6.686257797428041e-11
0, 0, 157, 5.815619166793518e-11
0, 0, 158, 5.527760540968707e-11
0, 0, 159, 6.12597264582071e-11
0, 0, 160, 9.573979109500641e-11
0, 0, 161, 1.317923270516275e-10
0, 0, 162, 1.788249964773669e-10
0, 0, 163, 8.816204016826035e-11
0, 0, 164, 1.322720682983558e-10
0, 0, 165, 3.595329936545433e-11
0, 0, 166, 6.722337270170797e-11
0, 0, 167, 8.746003227200205e-11
0, 0, 168, 1.017923245694163e-10
0, 0, 169, 4.023725450053028e-11
0, 0, 170, 1.34439445687029e-10
0, 0, 171, 5.673533171046685e-11
0, 0, 172, 1.44303458071704e-10
0, 0, 173, 8.008235741208125e-11
0, 0, 174, 1.888534328919889e-10
0, 0, 175, 2.11730896704232e-10
0, 0, 176, 2.034909879489177e-10
0, 0, 177, 1.019119233447441e-10
0, 0, 178, 6.66151647732427e-11
0, 0, 179, 9.172450299299584e-11
0, 0, 180, 7.391939838008454e-11
0, 0, 181, 4.026155450698177e-11
0, 0, 182, 4.675154360866962e-11
0, 0, 183, 4.055026453508859e-11
0, 0, 184, 5.664571589569789e-11
0, 0, 185, 6.490343679166344e-11
0, 0, 186, 7.053117812017007e-11
0, 0, 187, 6.057801482661773e-11
0, 0, 188, 7.938587287537047e-11
0, 0, 189, 7.553707659369024e-11
0, 0, 190, 8.382246285965067e-11
0, 0, 191, 1.186483689075146e-10
0, 0, 192, 8.342642549008517e-11
0, 0, 193, 7.512623856342771e-11
0, 0, 194, 1.437704538753692e-10
0, 0, 195, 1.127137272405321e-10
0, 0, 196, 7.238337013104612e-11
0, 0, 197, 6.697463417193461e-11
0, 0, 198, 1.296033974584887e-10
0, 0, 199, 8.448647337289117e-11
0, 0, 200, 7.149455333310684e-11
0, 0, 201, 9.616657470346013e-11
0, 0, 202, 9.612213802689951e-11
0, 0, 203, 7.477809343958697e-11
0, 0, 204, 4.123532071353964e-11
0, 0, 205, 4.709735379471169e-11
0, 0, 206, 5.066074990067726e-11
0, 0, 207, 8.723182592929035e-11
0, 0, 208, 1.265726273791401e-10
0, 0, 209, 1.321524972786037e-10
0, 0, 210, 1.245154396256609e-10
0, 0, 211, 1.482703265720531e-10
0, 0, 212, 5.832322819143698e-11
0, 0, 213, 7.651870109759429e-11
0, 0, 214, 1.145556149939608e-10
0, 0, 215, 5.752894341459758e-11
0, 0, 216, 1.164070437265075e-10
0, 0, 217, 1.651263431545757e-10
0, 0, 218, 1.861123338775528e-10
0, 0, 219, 9.198097145057815e-11
0, 0, 220, 6.715596134743151e-11
0, 0, 221, 9.652127014314615e-11
0, 0, 222, 6.558126264266662e-11
0, 0, 223, 5.316198176119613e-11
0, 0, 224, 7.623580239313199e-11
0, 0, 225, 6.429066307100939e-11
0, 0, 226, 9.450531329724399e-11
0, 0, 227, 1.178364350540306e-10
0, 0, 228, 3.397324782605793e-11
0, 0, 229, 2.765023800199717e-11
0, 0, 230, 5.141276640530101e-11
0, 0, 231, 4.257587338241109e-11
0, 0, 232, 3.807647599995967e-11
0, 0, 233, 7.439131949338318e-11
0, 0, 234, 8.275249235856208e-11
0, 0, 235, 8.218915825697337e-11
0, 0, 236, 1.518274256318008e-10
0, 0, 237, 1.525912868283186e-10
0, 0, 238, 9.030001052456882e-11
0, 0, 239, 6.060739410340688e-11
0, 0, 240, 8.590712863298933e-11
0, 0, 241, 9.222228536387433e-11
0, 0, 242, 1.075795633131982e-10
0, 0, 243, 9.675513862328344e-11
0, 0, 244, 9.055897698395654e-11
0, 0, 245, 6.812444358628156e-11
0, 0, 246, 7.764484194483501e-11
0, 0, 247, 6.568633137415958e-11
0, 0, 248, 1.105825639391433e-10
0, 0, 249, 8.134570100848393e-11
0, 0, 250, 1.34574990040548e-10
0, 0, 251, 1.287579903808123e-10
0, 0, 252, 8.784467597777734e-11
0, 0, 253, 8.764664688465373e-11
0, 0, 254, 1.150171763386609e-10
0, 0, 255, 1.270751837090245e-10
0, 0, 256, 9.014597401879598e-11
0, 0, 257, 1.151594028470093e-10
0, 0, 258, 1.516122366540529e-10
0, 0, 259, 9.219153218609222e-11
0, 0, 260, 1.048970701966745e-10
0, 0, 261, 6.666041330039008e-11
0, 0, 262, 1.459592585684177e-10
0, 0, 263, 2.372165519570757e-10
0, 0, 264, 1.67426295050177e-10
0, 0, 265, 2.186535258408284e-10
0, 0, 266, 2.20656090621496e-10
0, 0, 267, 2.971977108856549e-10
0, 0, 268, 3.76180392391845e-10
0, 0, 269, 4.49199510921261e-10
0, 0, 270, 8.402823437059226e-10
0, 0, 271, 1.133317439894199e-09
0, 0, 272, 1.408375638334292e-09
0, 0, 273, 1.804670968219568e-09
0, 0, 274, 2.66277400129411e-09
0, 0, 275, 3.083078681243023e-09
0, 0, 276, 4.009042431363241e-09
0, 0, 277, 4.976155043578956e-09
0, 0, 278, 6.576503341904072e-09
0, 0, 279, 7.990352379749766e-09
0, 0, 280, 9.478140050589445e-09
0, 0, 281, 1.15132214872915e-08
0, 0, 282, 1.379294811698628e-08
0, 0, 283, 1.633674884260472e-08
0, 0, 284, 1.957152306886201e-08
0, 0, 285, 2.283587541285215e-08
0, 0, 286, 2.578926583396424e-08
0, 0, 287, 2.78813256926469e-08
0, 0, 288, 3.032981865658257e-08
0, 0, 289, 3.305652640506196e-08
0, 0, 290, 3.516590751928561e-08
0, 0, 291, 3.683840787971349e-08
0, 0, 292, 3.943697990393957e-08
0, 0, 293, 4.063893754846504e-08
0, 0, 294, 4.122994923250189e-08
0, 0, 295, 4.183524993095489e-08
0, 0, 296, 4.233894301819419e-08
0, 0, 297, 4.365582029208781e-08
0, 0, 298, 4.314097168389708e-08
0, 0, 299, 4.295631939044142e-08
0, 0, 300, 4.324946800693397e-08
0, 0, 301, 4.281477572476433e-08
0, 0, 302, 4.218723148596837e-08
0, 0, 303, 4.06656397444749e-08
0, 0, 304, 3.988393970644211e-08
0, 0, 305, 3.903763357016032e-08
0, 0, 306, 3.849773477782037e-08
0, 0, 307, 3.755965494178781e-08
0, 0, 308, 3.663935288500397e-08
0, 0, 309, 3.589676111914741e-08
0, 0, 310, 3.498962186654353e-08
0, 0, 311, 3.443522800239407e-08
0, 0, 312, 3.410470483800054e-08
0, 0, 313, 3.331364695213779e-08
0, 0, 314, 3.239206591842958e-08
0, 0, 315, 3.195207654016485e-08
0, 0, 316, 3.119705027643249e-08
0, 0, 317, 3.038543283651052e-08
0, 0, 318, 2.971103540971853e-08
0, 0, 319, 2.906518226097887e-08
0, 0, 320, 2.900207185518866e-08
0, 0, 321, 2.865401249607658e-08
0, 0, 322, 2.862758741173366e-08
0, 0, 323, 2.805795595861582e-08
0, 0, 324, 2.74505396191671e-08
0, 0, 325, 2.710977753395127e-08
0, 0, 326, 2.674960164483764e-08
0, 0, 327, 2.648560659679333e-08
0, 0, 328, 2.60748453939641e-08
0, 0, 329, 2.596759784978531e-08
0, 0, 330, 2.550054567507232e-08
0, 0, 331, 2.553496969426305e-08
0, 0, 332, 2.562236467440471e-08
0, 0, 333, 2.507328034084821e-08
0, 0, 334, 2.477925065136333e-08
0, 0, 335, 2.457640135844485e-08
0, 0, 336, 2.425230505309628e-08
0, 0, 337, 2.410767585558915e-08
0, 0, 338, 2.395956322231996e-08
0, 0, 339, 2.355014849797499e-08
0, 0, 340, 2.338913596133807e-08
0, 0, 341, 2.329725035110641e-08
0, 0, 342, 2.298030032932274e-08
0, 0, 343, 2.286784628324767e-08
0, 0, 344, 2.262618892245882e-08
0, 0, 345, 2.252394359913978e-08
0, 0, 346, 2.224773076875408e-08
0, 0, 347, 2.208293814476292e-08
0, 0, 348, 2.192410164525427e-08
0, 0, 349, 2.171013591123483e-08
0, 0, 350, 2.164386536662732e-08
0, 0, 351, 2.173576163500002e-08
0, 0, 352, 2.166282619953108e-08
0, 0, 353, 2.183912961584156e-08
0, 0, 354, 2.161359624608394e-08
0, 0, 355, 2.131388221471298e-08
0, 0, 356, 2.093695172789012e-08
0, 0, 357, 2.109705121711158e-08
0, 0, 358, 2.108587615623492e-08
0, 0, 359, 2.125305265110455e-08
0, 0, 360, 2.088784789577858e-08
0, 0, 361, 2.063197612756085e-08
0, 0, 362, 2.048567893098152e-08
0, 0, 363, 2.036224699963896e-08
0, 0, 364, 2.036518154113764e-08
0, 0, 365, 2.02333829690815e-08
0, 0, 366, 2.012497191117291e-08
0, 0, 367, 1.996711418428276e-08
0, 0, 368, 1.955609185699814e-08
0, 0, 369, 1.973155860923725e-08
0, 0, 370, 1.9727822930804e-08
0, 0, 371, 1.983942787830983e-08
0, 0, 372, 1.967851481765592e-08
0, 0, 373, 1.967889140530588e-08
0, 0, 374, 1.960159501379621e-08
0, 0, 375, 1.913636538120045e-08
0, 0, 376, 1.899608115252249e-08
0, 0, 377, 1.891082312965864e-08
0, 0, 378, 1.882051137158669e-08
0, 0, 379, 1.882943045927732e-08
0, 0, 380, 1.884788503048185e-08
0, 0, 381, 1.904174240507928e-08
0, 0, 382, 1.882952105347613e-08
0, 0, 383, 1.877747024536802e-08
0, 0, 384, 1.843664243494914e-08
0, 0, 385, 1.829045714885069e-08
0, 0, 386, 1.830610329989213e-08
0, 0, 387, 1.837653407221751e-08
0, 0, 388, 1.848108510671409e-08
0, 0, 389, 1.845264030464477e-08
0, 0, 390, 1.828857776331461e-08
0, 0, 391, 1.821493000875307e-08
0, 0, 392, 1.805841876034719e-08
0, 0, 393, 1.807102201212274e-08
0, 0, 394, 1.81289632195103e-08
0, 0, 395, 1.785602421477961e-08
0, 0, 396, 1.792516002296907e-08
0, 0, 397, 1.770076352158867e-08
0, 0, 398, 1.791784676186126e-08
0, 0, 399, 1.785831571510244e-08
0, 0, 400, 1.759483758689839e-08
0, 0, 401, 1.743463684533708e-08
0, 0, 402, 1.74300929245419e-08
0, 0, 403, 1.735497789923102e-08
0, 0, 404, 1.748696476511213e-08
0, 0, 405, 1.720502851298988e-08
0, 0, 406, 1.746677469327551e-08
0, 0, 407, 1.721074482929907e-08
0, 0, 408, 1.702526830626994e-08
0, 0, 409, 1.707023677965935e-08
0, 0, 410, 1.725240927896721e-08
0, 0, 411, 1.791137727025216e-08
0, 0, 412, 1.736020038833885e-08
0, 0, 413, 1.71349761046713e-08
0, 0, 414, 1.689825168682546e-08
0, 0, 415, 1.708842134462429e-08
0, 0, 416, 1.720619025036285e-08
0, 0, 417, 1.68662612765047e-08
0, 0, 418, 1.705907060056688e-08
0, 0, 419, 1.67892562075167e-08
0, 0, 420, 1.731224941181608e-08
0, 0, 421, 1.694961682119356e-08
0, 0, 422, 1.716812647600818e-08
0, 0, 423, 1.706056451666882e-08
0, 0, 424, 1.672956173592866e-08
0, 0, 425, 1.70553473566315e-08
0, 0, 426, 1.651159742266373e-08
0, 0, 427, 1.651873482444444e-08
0, 0, 428, 1.652825609710362e-08
0, 0, 429, 1.680907857348757e-08
0, 0, 430, 1.636265878346421e-08
0, 0, 431, 1.62546349713466e-08
0, 0, 432, 1.63379425544008e-08
0, 0, 433, 1.633476287565827e-08
0, 0, 434, 1.634445112586036e-08
0, 0, 435, 1.645137714945122e-08
0, 0, 436, 1.647863356879498e-08
0, 0, 437, 1.598065679786487e-08
0, 0, 438, 1.607698507655186e-08
0, 0, 439, 1.624465362226601e-08
0, 0, 440, 1.633730839500913e-08
0, 0, 441, 1.602943733303164e-08
0, 0, 442, 1.60290838380206e-08
0, 0, 443, 1.612135314132956e-08
0, 0, 444, 1.627631540657148e-08
0, 0, 445, 1.624103340702732e-08
0, 0, 446, 1.621440759436155e-08
0, 0, 447, 1.611351407859729e-08
0, 0, 448, 1.617538281095676e-08
0, 0, 449, 1.603319077503329e-08
0, 0, 450, 1.611027578007906e-08
0, 0, 451, 1.593951104439384e-08
0, 0, 452, 1.602571764180993e-08
0, 0, 453, 1.593865128768357e-08
0, 0, 454, 1.596970555794996e-08
0, 0, 455, 1.573488894734965e-08
0, 0, 456, 1.57123896116218e-08
0, 0, 457, 1.550654360471526e-08
0, 0, 458, 1.60312207952984e-08
0, 0, 459, 1.585996045605498e-08
0, 0, 460, 1.55704711346516e-08
0, 0, 461, 1.547912553689912e-08
0, 0, 462, 1.548116834726443e-08
0, 0, 463, 1.571611996098454e-08
0, 0, 464, 1.554329465136561e-08
0, 0, 465, 1.605764410328447e-08
0, 0, 466, 1.542041161428642e-08
0, 0, 467, 1.538334437611866e-08
0, 0, 468, 1.534255922308603e-08
0, 0, 469, 1.581438802134016e-08
0, 0, 470, 1.517708092535486e-08
0, 0, 471, 1.526048443167838e-08
0, 0, 472, 1.509709157687666e-08
0, 0, 473, 1.534766802535614e-08
0, 0, 474, 1.508767333291416e-08
0, 0, 475, 1.513565983657372e-08
0, 0, 476, 1.497700630181953e-08
0, 0, 477, 1.52684833665262e-08
0, 0, 478, 1.50081316263595e-08
0, 0, 479, 1.539628868840737e-08
0, 0, 480, 1.542243666108334e-08
0, 0, 481, 1.524818138420869e-08
0, 0, 482, 1.518195347216533e-08
0, 0, 483, 1.49084442568892e-08
0, 0, 484, 1.488081746714442e-08
0, 0, 485, 1.500727009329239e-08
0, 0, 486, 1.488965395424202e-08
0, 0, 487, 1.506807834061874e-08
0, 0, 488, 1.517377690163357e-08
0, 0, 489, 1.520325376702658e-08
0, 0, 490, 1.508748503908919e-08
0, 0, 491, 1.496825952074232e-08
0, 0, 492, 1.477114519587985e-08
0, 0, 493, 1.490620782362839e-08
0, 0, 494, 1.474488886543668e-08
0, 0, 495, 1.482556744036856e-08
0, 0, 496, 1.472099686594674e-08
0, 0, 497, 1.479560829409365e-08
0, 0, 498, 1.45577514487627e-08
0, 0, 499, 1.460398912911387e-08
0, 0, 500, 1.46553915669756e-08
0, 0, 501, 1.484152711839215e-08
0, 0, 502, 1.477076327915938e-08
0, 0, 503, 1.492637835553978e-08
0, 0, 504, 1.451137610075648e-08
0, 0, 505, 1.453935016826335e-08
0, 0, 506, 1.451240816408017e-08
0, 0, 507, 1.47866563438015e-08
0, 0, 508, 1.481772127220893e-08
0, 0, 509, 1.459130505310213e-08
0, 0, 510, 1.487916723164062e-08
0, 0, 511, 1.442870267709395e-08
0, 0, 512, 1.488225187529224e-08
0, 0, 513, 1.474975075410612e-08
0, 0, 514, 1.45493297409871e-08
0, 0, 515, 1.444364539082699e-08
0, 0, 516, 1.45569982734628e-08
0, 0, 517, 1.44791956202539e-08
0, 0, 518, 1.445677710876225e-08
0, 0, 519, 1.466349086598484e-08
0, 0, 520, 1.426777807012058e-08
0, 0, 521, 1.44871306062555e-08
0, 0, 522, 1.458009357691026e-08
0, 0, 523, 1.429084672821546e-08
0, 0, 524, 1.433959351260228e-08
0, 0, 525, 1.434325813676196e-08
0, 0, 526, 1.410141869939707e-08
0, 0, 527, 1.430507445832063e-08
0, 0, 528, 1.413320216414604e-08
0, 0, 529, 1.410505223731207e-08
0, 0, 530, 1.435617846823334e-08
0, 0, 531, 1.427670603959541e-08
0, 0, 532, 1.406753025179341e-08
0, 0, 533, 1.436425378642525e-08
0, 0, 534, 1.428180507190291e-08
0, 0, 535, 1.392252091392265e-08
0, 0, 536, 1.405655236652592e-08
0, 0, 537, 1.406795036018593e-08
0, 0, 538, 1.414348549388933e-08
0, 0, 539, 1.402825766660953e-08
0, 0, 540, 1.414570505176016e-08
0, 0, 541, 1.430323237627817e-08
0, 0, 542, 1.408344108000392e-08
0, 0, 543, 1.406927552238812e-08
0, 0, 544, 1.423569351288734e-08
0, 0, 545, 1.387581338718746e-08
0, 0, 546, 1.39179876512685e-08
0, 0, 547, 1.414140271549513e-08
0, 0, 548, 1.394389936848484e-08
0, 0, 549, 1.397725846175035e-08
0, 0, 550, 1.386965031713316e-08
0, 0, 551, 1.389662340756104e-08
0, 0, 552, 1.375630809263839e-08
0, 0, 553, 1.382960945761624e-08
0, 0, 554, 1.373739788590456e-08
0, 0, 555, 1.4035419937386e-08
0, 0, 556, 1.453241793569759e-08
0, 0, 557, 1.36851960874651e-08
0, 0, 558, 1.382850189912688e-08
0, 0, 559, 1.377340730357446e-08
0, 0, 560, 1.403711724634604e-08
0, 0, 561, 1.410889272079885e-08
0, 0, 562, 1.390202619688807e-08
0, 0, 563, 1.38598998944417e-08
0, 0, 564, 1.361171442226805e-08
0, 0, 565, 1.385074543946985e-08
0, 0, 566, 1.377002156743856e-08
0, 0, 567, 1.372549895961583e-08
0, 0, 568, 1.369160784747692e-08
0, 0, 569, 1.3812213595088e-08
0, 0, 570, 1.38296254448278e-08
0, 0, 571, 1.392147819245793e-08
0, 0, 572, 1.379391711964217e-08
0, 0, 573, 1.362517298986177e-08
0, 0, 574, 1.367652924244567e-08
0, 0, 575, 1.377685165948606e-08
0, 0, 576, 1.360425017082889e-08
0, 0, 577, 1.354535061892648e-08
0, 0, 578, 1.375299518713291e-08
0, 0, 579, 1.381818570678206e-08
0, 0, 580, 1.373523428327417e-08
0, 0, 581, 1.347802403017795e-08
0, 0, 582, 1.379107761323439e-08
0, 0, 583, 1.392470849737037e-08
0, 0, 584, 1.38380835679186e-08
0, 0, 585, 1.373546343330645e-08
0, 0, 586, 1.35425564096181e-08
0, 0, 587, 1.359707102466245e-08
0, 0, 588, 1.361782864250927e-08
0, 0, 589, 1.345650346706861e-08
0, 0, 590, 1.379221270525477e-08
0, 0, 591, 1.376471026048876e-08
0, 0, 592, 1.354266387920688e-08
0, 0, 593, 1.341688271594421e-08
0, 0, 594, 1.360855872434286e-08
0, 0, 595, 1.373585956088164e-08
0, 0, 596, 1.36064599587371e-08
0, 0, 597, 1.341560285084142e-08
0, 0, 598, 1.355731882313194e-08
0, 0, 599, 1.341853383962643e-08
0, 0, 600, 1.354453171842351e-08
0, 0, 601, 1.355308398842681e-08
0, 0, 602, 1.374687919053486e-08
0, 0, 603, 1.364027468753193e-08
0, 0, 604, 1.366762880650185e-08
0, 0, 605, 1.364765189748596e-08
0, 0, 606, 1.380642267179155e-08
0, 0, 607, 1.377848946049198e-08
0, 0, 608, 1.358813594976027e-08
0, 0, 609, 1.332600341186208e-08
0, 0, 610, 1.330627252826844e-08
0, 0, 611, 1.34009310315264e-08
0, 0, 612, 1.335671306890163e-08
0, 0, 613, 1.33509772126672e-08
0, 0, 614, 1.335296850868417e-08
0, 0, 615, 1.37085409690485e-08
0, 0, 616, 1.373557800832259e-08
0, 0, 617, 1.347152611685942e-08
0, 0, 618, 1.352817591282474e-08
0, 0, 619, 1.341124011844386e-08
0, 0, 620, 1.358214163360572e-08
0, 0, 621, 1.351327849619111e-08
0, 0, 622, 1.345377231842804e-08
0, 0, 623, 1.35999673744891e-08
0, 0, 624, 1.340688537965207e-08
0, 0, 625, 1.365658430785288e-08
0, 0, 626, 1.351845302366428e-08
0, 0, 627, 1.33798403467722e-08
0, 0, 628, 1.323472442749107e-08
0, 0, 629, 1.329091148249972e-08
0, 0, 630, 1.364543500415039e-08
0, 0, 631, 1.317796627375856e-08
0, 0, 632, 1.309538433247326e-08
0, 0, 633, 1.319225706453153e-08
0, 0, 634, 1.356492873583193e-08
0, 0, 635, 1.300231566858656e-08
0, 0, 636, 1.302756125198812e-08
0, 0, 637, 1.351174283570344e-08
0, 0, 638, 1.326184229100136e-08
0, 0, 639, 1.322288500915647e-08
0, 0, 640, 1.327732501721357e-08
0, 0, 641, 1.317921416443824e-08
0, 0, 642, 1.319916442810154e-08
0, 0, 643, 1.310770425533292e-08
0, 0, 644, 1.312570763190024e-08
0, 0, 645, 1.374411340293591e-08
0, 0, 646, 1.305125607586888e-08
0, 0, 647, 1.310933406273307e-08
0, 0, 648, 1.321431675194162e-08
0, 0, 649, 1.288718909364661e-08
0, 0, 650, 1.340166999597159e-08
0, 0, 651, 1.328427501334772e-08
0, 0, 652, 1.283364969850709e-08
0, 0, 653, 1.316874431722681e-08
0, 0, 654, 1.28272210631053e-08
0, 0, 655, 1.292254925289171e-08
0, 0, 656, 1.274218242031111e-08
0, 0, 657, 1.277326067139484e-08
0, 0, 658, 1.293690221615407e-08
0, 0, 659, 1.276395256155638e-08
0, 0, 660, 1.307348362900029e-08
0, 0, 661, 1.290504592077468e-08
0, 0, 662, 1.271387262136159e-08
0, 0, 663, 1.292566498278802e-08
0, 0, 664, 1.290954543264888e-08
0, 0, 665, 1.263157312081375e-08
0, 0, 666, 1.284780548616027e-08
0, 0, 667, 1.296029683572897e-08
0, 0, 668, 1.293050111428329e-08
0, 0, 669, 1.270207050652061e-08
0, 0, 670, 1.282885619957597e-08
0, 0, 671, 1.287727968701802e-08
0, 0, 672, 1.260278459369601e-08
0, 0, 673, 1.257322601588839e-08
0, 0, 674, 1.28180328573535e-08
0, 0, 675, 1.286221440466306e-08
0, 0, 676, 1.270581684309491e-08
0, 0, 677, 1.28032180413129e-08
0, 0, 678, 1.284831974146528e-08
0, 0, 679, 1.279915018415068e-08
0, 0, 680, 1.322084219879116e-08
0, 0, 681, 1.305974084431227e-08
0, 0, 682, 1.29248345359656e-08
0, 0, 683, 1.280295247596541e-08
0, 0, 684, 1.272637550897571e-08
0, 0, 685, 1.294535767470961e-08
0, 0, 686, 1.27567760799252e-08
0, 0, 687, 1.287911111091944e-08
0, 0, 688, 1.255092652030498e-08
0, 0, 689, 1.276683647688515e-08
0, 0, 690, 1.270627691951631e-08
0, 0, 691, 1.267061655596535e-08
0, 0, 692, 1.256304393848495e-08
0, 0, 693, 1.273673255752783e-08
0, 0, 694, 1.285598916211939e-08
0, 0, 695, 1.296404317230326e-08
0, 0, 696, 1.279296668599272e-08
0, 0, 697, 1.244340008810241e-08
0, 0, 698, 1.255462933613671e-08
0, 0, 699, 1.260242665779288e-08
0, 0, 700, 1.278146477545761e-08
0, 0, 701, 1.259643767070884e-08
0, 0, 702, 1.254112014237307e-08
0, 0, 703, 1.251236092514318e-08
0, 0, 704, 1.299826202227905e-08
0, 0, 705, 1.26053674165405e-08
0, 0, 706, 1.264903470854506e-08
0, 0, 707, 1.277731787041603e-08
0, 0, 708, 1.319476172767509e-08
0, 0, 709, 1.280633643574447e-08
0, 0, 710, 1.271692173787642e-08
0, 0, 711, 1.258083859312364e-08
0, 0, 712, 1.284018136260556e-08
0, 0, 713, 1.26789503340774e-08
0, 0, 714, 1.253816250823547e-08
0, 0, 715, 1.258862880604283e-08
0, 0, 716, 1.33774014088317e-08
0, 0, 717, 1.292180407119758e-08
0, 0, 718, 1.269833127537368e-08
0, 0, 719, 1.270846894385613e-08
0, 0, 720, 1.248718373147994e-08
0, 0, 721, 1.27884298706249e-08
0, 0, 722, 1.248295422584533e-08
0, 0, 723, 1.253150383462298e-08
0, 0, 724, 1.246891656592197e-08
0, 0, 725, 1.262757098885459e-08
0, 0, 726, 1.284388151390203e-08
0, 0, 727, 1.252225256820338e-08
0, 0, 728, 1.252580350552535e-08
0, 0, 729, 1.267601668075713e-08
0, 0, 730, 1.249481584864043e-08
0, 0, 731, 1.23380861083433e-08
0, 0, 732, 1.252408043939113e-08
0, 0, 733, 1.270503968697767e-08
0, 0, 734, 1.242707359239148e-08
0, 0, 735, 1.27380568315516e-08
0, 0, 736, 1.250294268118068e-08
0, 0, 737, 1.273347827179805e-08
0, 0, 738, 1.25186510047115e-08
0, 0, 739, 1.247777348112322e-08
0, 0, 740, 1.318227571545094e-08
0, 0, 741, 1.264335658390792e-08
0, 0, 742, 1.265153759533177e-08
0, 0, 743, 1.237877622628503e-08
0, 0, 744, 1.260109350198491e-08
0, 0, 745, 1.280619166266206e-08
0, 0, 746, 1.250786141326898e-08
0, 0, 747, 1.280190708996543e-08
0, 0, 748, 1.296396323624549e-08
0, 0, 749, 1.278986339059429e-08
0, 0, 750, 1.274170102760763e-08
0, 0, 751, 1.262671389667958e-08
0, 0, 752, 1.232121693561794e-08
0, 0, 753, 1.219196477109108e-08
0, 0, 754, 1.257558235323586e-08
0, 0, 755, 1.216310607787818e-08
0, 0, 756, 1.25807373407838e-08
0, 0, 757, 1.248067338366354e-08
0, 0, 758, 1.249265846325898e-08
0, 0, 759, 1.214398537285888e-08
0, 0, 760, 1.222624668173466e-08
0, 0, 761, 1.215235290175087e-08
0, 0, 762, 1.204853017355845e-08
0, 0, 763, 1.197536825259249e-08
0, 0, 764, 1.212374645120917e-08
0, 0, 765, 1.250193104596065e-08
0, 0, 766, 1.24036754201029e-08
0, 0, 767, 1.251295334014912e-08
0, 0, 768, 1.209181998973463e-08
0, 0, 769, 1.225952672712083e-08
0, 0, 770, 1.239758340432218e-08
0, 0, 771, 1.223326950849923e-08
0, 0, 772, 1.231148250013803e-08
0, 0, 773, 1.223905510272516e-08
0, 0, 774, 1.253973902493044e-08
0, 0, 775, 1.249903025524191e-08
0, 0, 776, 1.215950717892156e-08
0, 0, 777, 1.208076572112304e-08
0, 0, 778, 1.224767309793151e-08
0, 0, 779, 1.182800613008794e-08
0, 0, 780, 1.230774238081267e-08
0, 0, 781, 1.20113963220092e-08
0, 0, 782, 1.203967681107088e-08
0, 0, 783, 1.226965551381909e-08
0, 0, 784, 1.250376513439733e-08
0, 0, 785, 1.210573241650081e-08
0, 0, 786, 1.231987578620419e-08
0, 0, 787, 1.210961730890858e-08
0, 0, 788, 1.2172177932257e-08
0, 0, 789, 1.227429713424044e-08
0, 0, 790, 1.214087763656835e-08
0, 0, 791, 1.250152870113652e-08
0, 0, 792, 1.267245952618623e-08
0, 0, 793, 1.2179229180731e-08
0, 0, 794, 1.231474566765201e-08
0, 0, 795, 1.247819447769416e-08
0, 0, 796, 1.279759409555936e-08
0, 0, 797, 1.267133242777163e-08
0, 0, 798, 1.24309966764713e-08
0, 0, 799, 1.216123202141262e-08
0, 0, 800, 1.222423495761404e-08
0, 0, 801, 1.219491707615816e-08
0, 0, 802, 1.233959512347838e-08
0, 0, 803, 1.246082703687534e-08
0, 0, 804, 1.202177113412972e-08
0, 0, 805, 1.211854705474025e-08
0, 0, 806, 1.194029497497695e-08
0, 0, 807, 1.200007471169329e-08
0, 0, 808, 1.225580170682861e-08
0, 0, 809, 1.228837653854953e-08
0, 0, 810, 1.212606814959827e-08
0, 0, 811, 1.186014042531269e-08
0, 0, 812, 1.242640657039829e-08
0, 0, 813, 1.227724411023701e-08
0, 0, 814, 1.268064053761009e-08
0, 0, 815, 1.226168233614544e-08
0, 0, 816, 1.230802926244223e-08
0, 0, 817, 1.229373403077716e-08
0, 0, 818, 1.224121870535555e-08
0, 0, 819, 1.224961909684907e-08
0, 0, 820, 1.223364343161393e-08
0, 0, 821, 1.226538781651243e-08
0, 0, 822, 1.214069111910021e-08
0, 0, 823, 1.238219748955771e-08
0, 0, 824, 1.250298531374483e-08
0, 0, 825, 1.226317625224738e-08
0, 0, 826, 1.215460621040165e-08
0, 0, 827, 1.229593760143644e-08
0, 0, 828, 1.240023372872656e-08
0, 0, 829, 1.198379440126018e-08
0, 0, 830, 1.216658951364025e-08
0, 0, 831, 1.214556810680278e-08
0, 0, 832, 1.226834367429319e-08
0, 0, 833, 1.231138924140396e-08
0, 0, 834, 1.225625734235791e-08
0, 0, 835, 1.200988997140939e-08
0, 0, 836, 1.196032606287645e-08
0, 0, 837, 1.231591806316601e-08
0, 0, 838, 1.231469326512524e-08
0, 0, 839, 1.228039447909168e-08
0, 0, 840, 1.210736577661464e-08
0, 0, 841, 1.186342402093032e-08
0, 0, 842, 1.190375176207681e-08
0, 0, 843, 1.183975051333164e-08
0, 0, 844, 1.168407770535396e-08
0, 0, 845, 1.1748578110371e-08
0, 0, 846, 1.207493571797613e-08
0, 0, 847, 1.233893964780464e-08
0, 0, 848, 1.220544465496687e-08
0, 0, 849, 1.19838539092143e-08
0, 0, 850, 1.1801841282022e-08
0, 0, 851, 1.178720587802218e-08
0, 0, 852, 1.203308386266144e-08
0, 0, 853, 1.205247190938508e-08
0, 0, 854, 1.172082164657695e-08
0, 0, 855, 1.188233245130732e-08
0, 0, 856, 1.188189457934641e-08
0, 0, 857, 1.255863413263114e-08
0, 0, 858, 1.180585940119272e-08
0, 0, 859, 1.21754331061652e-08
0, 0, 860, 1.202282717827075e-08
0, 0, 861, 1.200246746435596e-08
0, 0, 862, 1.211737199469098e-08
0, 0, 863, 1.193654242115372e-08
0, 0, 864, 1.220420831060665e-08
0, 0, 865, 1.212601929978518e-08
0, 0, 866, 1.266660287768673e-08
0, 0, 867, 1.252557346731464e-08
0, 0, 868, 1.197308474587544e-08
0, 0, 869, 1.216003919779496e-08
0, 0, 870, 1.213241507258545e-08
0, 0, 871, 1.191416032497727e-08
0, 0, 872, 1.188200826618413e-08
0, 0, 873, 1.181454312160213e-08
0, 0, 874, 1.224496237739459e-08
0, 0, 875, 1.185345244181235e-08
0, 0, 876, 1.175043440326817e-08
0, 0, 877, 1.198502719290673e-08
0, 0, 878, 1.221828238584521e-08
0, 0, 879, 1.198718635464502e-08
0, 0, 880, 1.203212995903868e-08
0, 0, 881, 1.186070797132288e-08
0, 0, 882, 1.195352616889522e-08
0, 0, 883, 1.19164429435159e-08
0, 0, 884, 1.176105790534621e-08
0, 0, 885, 1.174589936425718e-08
0, 0, 886, 1.177373221139533e-08
0, 0, 887, 1.164100016382008e-08
0, 0, 888, 1.199021326669936e-08
0, 0, 889, 1.175446495693677e-08
0, 0, 890, 1.172834096507813e-08
0, 0, 891, 1.209888900177702e-08
0, 0, 892, 1.264544557955105e-08
0, 0, 893, 1.181986508669297e-08
0, 0, 894, 1.15986029669557e-08
0, 0, 895, 1.157138473928399e-08
0, 0, 896, 1.146814021524278e-08
0, 0, 897, 1.166766594451474e-08
0, 0, 898, 1.164796170627369e-08
0, 0, 899, 1.153499784578571e-08
0, 0, 900, 1.157511686500357e-08
0, 0, 901, 1.145172490168989e-08
0, 0, 902, 1.137559468844529e-08
0, 0, 903, 1.137541971729661e-08
0, 0, 904, 1.124030024612921e-08
0, 0, 905, 1.142983840907164e-08
0, 0, 906, 1.155151974074897e-08
0, 0, 907, 1.178759223563475e-08
