# TOPAS Version: 3.9
# Parameter File: ./bragg_peak/jobs/job9.txt
# Results for scorer: DoseScorer
# Scored in component: Phantom
# R in 1 bin  of 15 cm
# Phi in 1 bin  of 360 deg
# Z in 1000 bins of 0.04 cm
# DoseToMedium ( Gy ) : Sum   
0, 0, 0, 1.884982794853052e-11
0, 0, 1, 1.828247449264797e-11
0, 0, 2, 4.211697657297009e-11
0, 0, 3, 1.876246380483337e-10
0, 0, 4, 3.585122129723395e-11
0, 0, 5, 3.374516985288345e-11
0, 0, 6, 3.150907312843287e-11
0, 0, 7, 2.050952463417133e-11
0, 0, 8, 1.903566193561801e-11
0, 0, 9, 8.108146792862314e-11
0, 0, 10, 2.02396190085441e-11
0, 0, 11, 4.483100696228703e-11
0, 0, 12, 1.367619628656058e-10
0, 0, 13, 2.491814046767793e-11
0, 0, 14, 2.572535066913684e-11
0, 0, 15, 4.585400462109313e-11
0, 0, 16, 6.170879779388017e-11
0, 0, 17, 5.620293813679567e-11
0, 0, 18, 4.489896995862885e-11
0, 0, 19, 4.119207752673049e-11
0, 0, 20, 7.407521818159069e-11
0, 0, 21, 2.787356630229443e-11
0, 0, 22, 2.587483699523219e-11
0, 0, 23, 4.036817408126225e-11
0, 0, 24, 3.513432600410482e-11
0, 0, 25, 5.425249832713419e-11
0, 0, 26, 4.219250643311412e-11
0, 0, 27, 3.878459706174731e-11
0, 0, 28, 3.210344490245376e-11
0, 0, 29, 2.879710012115844e-11
0, 0, 30, 3.675796125812703e-11
0, 0, 31, 3.269819137674546e-11
0, 0, 32, 3.281078186923025e-11
0, 0, 33, 2.761042956767046e-11
0, 0, 34, 2.089456212217566e-11
0, 0, 35, 1.755652047352729e-11
0, 0, 36, 1.752856193526497e-11
0, 0, 37, 2.211690379450015e-11
0, 0, 38, 2.259482878574914e-11
0, 0, 39, 2.170125711076221e-11
0, 0, 40, 1.500473530147151e-11
0, 0, 41, 3.140757445785347e-11
0, 0, 42, 1.475412500506756e-11
0, 0, 43, 2.871258092396189e-11
0, 0, 44, 2.459355635808791e-11
0, 0, 45, 2.624213867041814e-11
0, 0, 46, 1.282279421532806e-10
0, 0, 47, 1.881168311401726e-11
0, 0, 48, 2.876376220539711e-11
0, 0, 49, 7.472010510323202e-11
0, 0, 50, 1.45551608959904e-11
0, 0, 51, 4.043163373546044e-11
0, 0, 52, 4.953030693921612e-11
0, 0, 53, 5.693985213883757e-11
0, 0, 54, 7.00405428100126e-11
0, 0, 55, 7.913333183173776e-11
0, 0, 56, 9.14125788953335e-11
0, 0, 57, 3.879959895036755e-11
0, 0, 58, 3.178994567587523e-11
0, 0, 59, 3.966861908399899e-11
0, 0, 60, 3.995819300439685e-11
0, 0, 61, 2.58293508109686e-11
0, 0, 62, 2.442924335044339e-11
0, 0, 63, 1.899782067771305e-11
0, 0, 64, 1.6585384107759e-11
0, 0, 65, 2.371597536410253e-11
0, 0, 66, 2.160842338394531e-11
0, 0, 67, 2.654332309504071e-11
0, 0, 68, 4.117173268980423e-11
0, 0, 69, 3.87208355656643e-11
0, 0, 70, 3.423339042796236e-11
0, 0, 71, 3.04709174558937e-11
0, 0, 72, 3.64457179713451e-11
0, 0, 73, 4.358053154462915e-11
0, 0, 74, 1.165640917122346e-10
0, 0, 75, 8.634284259789737e-11
0, 0, 76, 5.676500935969386e-11
0, 0, 77, 1.021761217301353e-10
0, 0, 78, 7.115147360181595e-11
0, 0, 79, 7.81857772969019e-11
0, 0, 80, 8.3377478532487e-11
0, 0, 81, 6.370613064854425e-11
0, 0, 82, 5.529960517280941e-11
0, 0, 83, 4.014532109519742e-11
0, 0, 84, 4.526308841623639e-11
0, 0, 85, 6.086182946507535e-11
0, 0, 86, 6.858482531901799e-11
0, 0, 87, 7.316836025950124e-11
0, 0, 88, 1.134662919177742e-10
0, 0, 89, 1.008350902775845e-10
0, 0, 90, 9.816482349211952e-11
0, 0, 91, 1.920363035257111e-10
0, 0, 92, 1.302230961952588e-10
0, 0, 93, 6.725885126623865e-11
0, 0, 94, 5.405632538812988e-11
0, 0, 95, 9.313485399564669e-11
0, 0, 96, 1.360309087594658e-10
0, 0, 97, 1.612948247187163e-10
0, 0, 98, 9.942079798319625e-11
0, 0, 99, 5.770761299372928e-11
0, 0, 100, 4.653989693625959e-11
0, 0, 101, 4.247060689244186e-11
0, 0, 102, 8.205808255112856e-11
0, 0, 103, 6.80497602711938e-11
0, 0, 104, 5.490355045600914e-11
0, 0, 105, 5.351616372273327e-11
0, 0, 106, 1.016327161318387e-10
0, 0, 107, 1.311770275735924e-10
0, 0, 108, 7.188707962235696e-11
0, 0, 109, 8.471875978521837e-11
0, 0, 110, 5.153676790881079e-11
0, 0, 111, 6.886538561623468e-11
0, 0, 112, 7.020987957684355e-11
0, 0, 113, 1.027822410515356e-10
0, 0, 114, 9.764894448593964e-11
0, 0, 115, 9.557151597894276e-11
0, 0, 116, 5.237696040771844e-11
0, 0, 117, 5.132522531980932e-11
0, 0, 118, 1.170829960761566e-10
0, 0, 119, 5.575550784953087e-11
0, 0, 120, 4.997892030789153e-11
0, 0, 121, 1.082375855609996e-10
0, 0, 122, 2.972427026737279e-10
0, 0, 123, 5.772031463902039e-11
0, 0, 124, 1.555681555798216e-10
0, 0, 125, 9.624500502125599e-11
0, 0, 126, 7.831152393222851e-11
0, 0, 127, 7.621846903616003e-11
0, 0, 128, 1.029154261811271e-10
0, 0, 129, 1.236496599554826e-10
0, 0, 130, 1.329231863467228e-10
0, 0, 131, 1.018764239635317e-10
0, 0, 132, 1.553170925205904e-10
0, 0, 133, 1.183785292013795e-10
0, 0, 134, 9.12257630547586e-11
0, 0, 135, 9.189973781964511e-11
0, 0, 136, 6.105130984090934e-11
0, 0, 137, 8.207574203611401e-11
0, 0, 138, 8.148264007967754e-11
0, 0, 139, 9.753772095555391e-11
0, 0, 140, 6.968401550233594e-11
0, 0, 141, 1.757784473532809e-10
0, 0, 142, 5.105794953497167e-11
0, 0, 143, 7.184627892620199e-11
0, 0, 144, 4.124623212420353e-11
0, 0, 145, 8.696508790873025e-11
0, 0, 146, 3.833534878427969e-11
0, 0, 147, 3.537315926283036e-11
0, 0, 148, 1.777906433186871e-10
0, 0, 149, 5.307706357760011e-11
0, 0, 150, 4.007234127856307e-11
0, 0, 151, 5.047846168837467e-11
0, 0, 152, 3.805191925443374e-11
0, 0, 153, 8.176211790944521e-11
0, 0, 154, 1.398354626536147e-10
0, 0, 155, 4.419037011316185e-11
0, 0, 156, 3.83026943495679e-11
0, 0, 157, 6.958143783375448e-11
0, 0, 158, 1.175466946001791e-10
0, 0, 159, 1.082383280226473e-10
0, 0, 160, 9.484937835146923e-11
0, 0, 161, 6.900397614417741e-11
0, 0, 162, 4.528503266820749e-11
0, 0, 163, 4.347422422057434e-11
0, 0, 164, 4.823604016213068e-11
0, 0, 165, 8.644886195785517e-11
0, 0, 166, 1.022374129799886e-10
0, 0, 167, 8.479902890989877e-11
0, 0, 168, 9.52148221378124e-11
0, 0, 169, 4.664364380846386e-11
0, 0, 170, 5.500217295506538e-11
0, 0, 171, 7.586428707462289e-11
0, 0, 172, 1.023658380283621e-10
0, 0, 173, 9.406337514450414e-11
0, 0, 174, 4.465221248306506e-11
0, 0, 175, 6.275083230811163e-11
0, 0, 176, 1.286417222745584e-10
0, 0, 177, 8.419234753809235e-11
0, 0, 178, 8.476923329947539e-11
0, 0, 179, 7.137401780710206e-11
0, 0, 180, 3.824277700070766e-11
0, 0, 181, 6.764738075260013e-11
0, 0, 182, 6.489995346692368e-11
0, 0, 183, 4.017367341568878e-11
0, 0, 184, 3.718375607419944e-11
0, 0, 185, 1.602546428891571e-10
0, 0, 186, 3.89442471326884e-11
0, 0, 187, 7.119314859860282e-11
0, 0, 188, 2.064323295636328e-10
0, 0, 189, 1.614321315512868e-10
0, 0, 190, 1.211883371432521e-10
0, 0, 191, 1.662602278074132e-10
0, 0, 192, 1.95728641627646e-10
0, 0, 193, 1.377236380495361e-10
0, 0, 194, 1.301738994374801e-10
0, 0, 195, 1.366511209743848e-10
0, 0, 196, 1.229020357707e-10
0, 0, 197, 1.001646127152256e-10
0, 0, 198, 9.556102437136005e-11
0, 0, 199, 9.289647523447186e-11
0, 0, 200, 1.642083691244522e-10
0, 0, 201, 1.101177968254596e-10
0, 0, 202, 1.078262201748004e-10
0, 0, 203, 9.256435895554915e-11
0, 0, 204, 8.690417829804176e-11
0, 0, 205, 9.503611786421118e-11
0, 0, 206, 7.841254034968159e-11
0, 0, 207, 8.535123302566561e-11
0, 0, 208, 9.631599684478687e-11
0, 0, 209, 9.46974859639127e-11
0, 0, 210, 1.121833806405625e-10
0, 0, 211, 8.474796558965991e-11
0, 0, 212, 1.955763467842431e-10
0, 0, 213, 8.393468559075856e-11
0, 0, 214, 5.318485235550341e-11
0, 0, 215, 6.419667575308097e-11
0, 0, 216, 1.418200973324346e-10
0, 0, 217, 1.498292323542927e-10
0, 0, 218, 1.58776214398415e-10
0, 0, 219, 1.101076105292087e-10
0, 0, 220, 1.10907102945923e-10
0, 0, 221, 1.544995520408321e-10
0, 0, 222, 1.368429813908278e-10
0, 0, 223, 1.01709161925978e-10
0, 0, 224, 1.620551193237674e-10
0, 0, 225, 1.326989351735364e-10
0, 0, 226, 2.33012081851669e-10
0, 0, 227, 1.447445219238119e-10
0, 0, 228, 1.676188771115861e-10
0, 0, 229, 1.511046981983455e-10
0, 0, 230, 1.337052552008444e-10
0, 0, 231, 1.752357148276928e-10
0, 0, 232, 2.054987846555889e-10
0, 0, 233, 2.097663848177334e-10
0, 0, 234, 1.818857842117438e-10
0, 0, 235, 1.674826527464646e-10
0, 0, 236, 9.162301473075729e-11
0, 0, 237, 2.964379020031771e-10
0, 0, 238, 2.060921017177364e-10
0, 0, 239, 1.377634117893933e-10
0, 0, 240, 1.569948060442528e-10
0, 0, 241, 1.191818449486348e-10
0, 0, 242, 8.703077841731854e-11
0, 0, 243, 9.305577142182386e-11
0, 0, 244, 9.749708679285263e-11
0, 0, 245, 9.597997396859625e-11
0, 0, 246, 8.525941758152911e-11
0, 0, 247, 9.800408401483551e-11
0, 0, 248, 6.085450893200672e-11
0, 0, 249, 7.744741653548104e-11
0, 0, 250, 4.432489791872385e-11
0, 0, 251, 4.072965228973935e-11
0, 0, 252, 5.115076417983033e-11
0, 0, 253, 1.181506420477874e-10
0, 0, 254, 1.573221136697001e-10
0, 0, 255, 5.750853612762619e-11
0, 0, 256, 6.607703273431298e-11
0, 0, 257, 9.65625565618744e-11
0, 0, 258, 7.113696437466288e-11
0, 0, 259, 7.851790051471852e-11
0, 0, 260, 5.959049226289537e-11
0, 0, 261, 7.515817829206739e-11
0, 0, 262, 4.770209227622502e-11
0, 0, 263, 5.173565395533153e-11
0, 0, 264, 1.110000424908719e-10
0, 0, 265, 1.165172958117466e-10
0, 0, 266, 3.805517567734285e-10
0, 0, 267, 3.875828824551064e-10
0, 0, 268, 4.590039182073014e-10
0, 0, 269, 7.952533076505119e-10
0, 0, 270, 9.050262206322657e-10
0, 0, 271, 1.106537084183401e-09
0, 0, 272, 1.748194367046096e-09
0, 0, 273, 2.125705167443925e-09
0, 0, 274, 2.989217318116744e-09
0, 0, 275, 3.488379141103337e-09
0, 0, 276, 4.206385906257992e-09
0, 0, 277, 5.197970498471705e-09
0, 0, 278, 6.532896890121265e-09
0, 0, 279, 8.268536078048783e-09
0, 0, 280, 1.005029570677607e-08
0, 0, 281, 1.26001511446816e-08
0, 0, 282, 1.495315693489374e-08
0, 0, 283, 1.731684839967329e-08
0, 0, 284, 2.025107548320193e-08
0, 0, 285, 2.247125507892633e-08
0, 0, 286, 2.509030494479703e-08
0, 0, 287, 2.79006897585532e-08
0, 0, 288, 3.033994389056716e-08
0, 0, 289, 3.311942009531776e-08
0, 0, 290, 3.450600871701681e-08
0, 0, 291, 3.624885991371229e-08
0, 0, 292, 3.759190647656396e-08
0, 0, 293, 3.924601443827669e-08
0, 0, 294, 4.047745250090884e-08
0, 0, 295, 4.15729104474849e-08
0, 0, 296, 4.213659465790442e-08
0, 0, 297, 4.322234659071e-08
0, 0, 298, 4.347523940850806e-08
0, 0, 299, 4.309205081654e-08
0, 0, 300, 4.254196639408292e-08
0, 0, 301, 4.163714351079761e-08
0, 0, 302, 4.122433594488939e-08
0, 0, 303, 4.083307558744309e-08
0, 0, 304, 3.972317230704903e-08
0, 0, 305, 3.886919586193471e-08
0, 0, 306, 3.814389515355288e-08
0, 0, 307, 3.747647525642606e-08
0, 0, 308, 3.646940527346487e-08
0, 0, 309, 3.536488435429419e-08
0, 0, 310, 3.527678771320097e-08
0, 0, 311, 3.438852402837256e-08
0, 0, 312, 3.378330504233418e-08
0, 0, 313, 3.340085186209762e-08
0, 0, 314, 3.241401813625089e-08
0, 0, 315, 3.222004352210206e-08
0, 0, 316, 3.128153380771437e-08
0, 0, 317, 3.076248944466897e-08
0, 0, 318, 3.012548432934636e-08
0, 0, 319, 2.909513519000484e-08
0, 0, 320, 2.896774375926725e-08
0, 0, 321, 2.821185596246778e-08
0, 0, 322, 2.800331166952219e-08
0, 0, 323, 2.773147578238877e-08
0, 0, 324, 2.724061864967098e-08
0, 0, 325, 2.682031663425732e-08
0, 0, 326, 2.677268717832249e-08
0, 0, 327, 2.63603503469767e-08
0, 0, 328, 2.632256723700266e-08
0, 0, 329, 2.612887151087762e-08
0, 0, 330, 2.585665903609424e-08
0, 0, 331, 2.547995947566051e-08
0, 0, 332, 2.508220298125252e-08
0, 0, 333, 2.498382123405918e-08
0, 0, 334, 2.462803294633886e-08
0, 0, 335, 2.457641912201325e-08
0, 0, 336, 2.424980571902324e-08
0, 0, 337, 2.415501931807285e-08
0, 0, 338, 2.400545007219534e-08
0, 0, 339, 2.367401030767269e-08
0, 0, 340, 2.354178008090457e-08
0, 0, 341, 2.333522530761911e-08
0, 0, 342, 2.287776545983888e-08
0, 0, 343, 2.280818378608274e-08
0, 0, 344, 2.265988463534541e-08
0, 0, 345, 2.234737728201708e-08
0, 0, 346, 2.208365224021236e-08
0, 0, 347, 2.196657788999801e-08
0, 0, 348, 2.167853274670506e-08
0, 0, 349, 2.159005241253453e-08
0, 0, 350, 2.172101964958983e-08
0, 0, 351, 2.161407408607374e-08
0, 0, 352, 2.157672618352535e-08
0, 0, 353, 2.148014033309664e-08
0, 0, 354, 2.142122923487477e-08
0, 0, 355, 2.138694377151751e-08
0, 0, 356, 2.112935426623608e-08
0, 0, 357, 2.071061189212742e-08
0, 0, 358, 2.058213155464728e-08
0, 0, 359, 2.058455450537622e-08
0, 0, 360, 2.043428715126083e-08
0, 0, 361, 2.058315651254361e-08
0, 0, 362, 2.059483605876267e-08
0, 0, 363, 2.03635881490527e-08
0, 0, 364, 2.019419120813382e-08
0, 0, 365, 2.059738335447037e-08
0, 0, 366, 1.992494880198592e-08
0, 0, 367, 1.971230823016867e-08
0, 0, 368, 1.960748008400515e-08
0, 0, 369, 1.973833541057957e-08
0, 0, 370, 1.946939853780805e-08
0, 0, 371, 1.942094840501341e-08
0, 0, 372, 1.96593212820062e-08
0, 0, 373, 1.939178417842413e-08
0, 0, 374, 1.933185700409012e-08
0, 0, 375, 1.918913028475799e-08
0, 0, 376, 1.942428795587148e-08
0, 0, 377, 1.907224245201178e-08
0, 0, 378, 1.87836324272439e-08
0, 0, 379, 1.861537057834539e-08
0, 0, 380, 1.856706077774106e-08
0, 0, 381, 1.850919062462708e-08
0, 0, 382, 1.863118015421605e-08
0, 0, 383, 1.845908670361496e-08
0, 0, 384, 1.84744219922095e-08
0, 0, 385, 1.870851029650566e-08
0, 0, 386, 1.881828204375324e-08
0, 0, 387, 1.863229748266804e-08
0, 0, 388, 1.826238538171765e-08
0, 0, 389, 1.805949523259187e-08
0, 0, 390, 1.784043668351387e-08
0, 0, 391, 1.777774549793776e-08
0, 0, 392, 1.790612991214857e-08
0, 0, 393, 1.782298397756676e-08
0, 0, 394, 1.776861502378324e-08
0, 0, 395, 1.776037272804842e-08
0, 0, 396, 1.779067027030123e-08
0, 0, 397, 1.801068982842935e-08
0, 0, 398, 1.818677297649174e-08
0, 0, 399, 1.807129734743285e-08
0, 0, 400, 1.762561829821152e-08
0, 0, 401, 1.783024394796939e-08
0, 0, 402, 1.740232846714207e-08
0, 0, 403, 1.725759446458142e-08
0, 0, 404, 1.780696123887537e-08
0, 0, 405, 1.725891252135625e-08
0, 0, 406, 1.711521946390349e-08
0, 0, 407, 1.7281921671497e-08
0, 0, 408, 1.731608278987551e-08
0, 0, 409, 1.718710684883717e-08
0, 0, 410, 1.736749766223511e-08
0, 0, 411, 1.699749851979959e-08
0, 0, 412, 1.709775609981534e-08
0, 0, 413, 1.716429842701928e-08
0, 0, 414, 1.711839381357549e-08
0, 0, 415, 1.706011509838845e-08
0, 0, 416, 1.69213052458872e-08
0, 0, 417, 1.67393832128937e-08
0, 0, 418, 1.698551344020416e-08
0, 0, 419, 1.68889524587712e-08
0, 0, 420, 1.731165077956121e-08
0, 0, 421, 1.708418118084865e-08
0, 0, 422, 1.684201222929005e-08
0, 0, 423, 1.690614936933343e-08
0, 0, 424, 1.689702422424944e-08
0, 0, 425, 1.668498939011442e-08
0, 0, 426, 1.673537042279349e-08
0, 0, 427, 1.680827566019616e-08
0, 0, 428, 1.673143401603738e-08
0, 0, 429, 1.669700999684665e-08
0, 0, 430, 1.635264190724683e-08
0, 0, 431, 1.660564130645525e-08
0, 0, 432, 1.637805269183445e-08
0, 0, 433, 1.630177770550745e-08
0, 0, 434, 1.611199706985644e-08
0, 0, 435, 1.638962743299999e-08
0, 0, 436, 1.620479928021723e-08
0, 0, 437, 1.634252200233277e-08
0, 0, 438, 1.642510305543965e-08
0, 0, 439, 1.638707836093545e-08
0, 0, 440, 1.657377524111325e-08
0, 0, 441, 1.624976597724981e-08
0, 0, 442, 1.632844970345104e-08
0, 0, 443, 1.615337907878711e-08
0, 0, 444, 1.647085134948156e-08
0, 0, 445, 1.613847899761822e-08
0, 0, 446, 1.640528957125298e-08
0, 0, 447, 1.602152011059843e-08
0, 0, 448, 1.59998148063778e-08
0, 0, 449, 1.588075804193068e-08
0, 0, 450, 1.590416509600345e-08
0, 0, 451, 1.615567946089413e-08
0, 0, 452, 1.570475127721238e-08
0, 0, 453, 1.593524068255192e-08
0, 0, 454, 1.621394751794014e-08
0, 0, 455, 1.616775868740206e-08
0, 0, 456, 1.640767344213145e-08
0, 0, 457, 1.600156274150777e-08
0, 0, 458, 1.589906695187437e-08
0, 0, 459, 1.58069415334694e-08
0, 0, 460, 1.561918772097215e-08
0, 0, 461, 1.554516160240382e-08
0, 0, 462, 1.548391992400866e-08
0, 0, 463, 1.536415084046894e-08
0, 0, 464, 1.547220840336649e-08
0, 0, 465, 1.556598228091843e-08
0, 0, 466, 1.581300956843279e-08
0, 0, 467, 1.557276974040178e-08
0, 0, 468, 1.588983344902317e-08
0, 0, 469, 1.596695398120573e-08
0, 0, 470, 1.54565462651135e-08
0, 0, 471, 1.556155382331781e-08
0, 0, 472, 1.519873826794083e-08
0, 0, 473, 1.561931028959407e-08
0, 0, 474, 1.508580993458963e-08
0, 0, 475, 1.518066028438625e-08
0, 0, 476, 1.524750636860972e-08
0, 0, 477, 1.510644409563611e-08
0, 0, 478, 1.507832614322524e-08
0, 0, 479, 1.55271173696292e-08
0, 0, 480, 1.550189843158023e-08
0, 0, 481, 1.508914593273403e-08
0, 0, 482, 1.533723192892467e-08
0, 0, 483, 1.501053681352005e-08
0, 0, 484, 1.499010160443959e-08
0, 0, 485, 1.50346597393991e-08
0, 0, 486, 1.528980142495584e-08
0, 0, 487, 1.559860685063086e-08
0, 0, 488, 1.539953053963927e-08
0, 0, 489, 1.504053237511016e-08
0, 0, 490, 1.491659773478204e-08
0, 0, 491, 1.491327772384921e-08
0, 0, 492, 1.511479652549497e-08
0, 0, 493, 1.513924097196195e-08
0, 0, 494, 1.470944788195538e-08
0, 0, 495, 1.472534449931118e-08
0, 0, 496, 1.477433819729868e-08
0, 0, 497, 1.482947009634472e-08
0, 0, 498, 1.510213643030056e-08
0, 0, 499, 1.493268797503333e-08
0, 0, 500, 1.510120739567355e-08
0, 0, 501, 1.494974988247577e-08
0, 0, 502, 1.510339764365654e-08
0, 0, 503, 1.486307876774617e-08
0, 0, 504, 1.479849931484978e-08
0, 0, 505, 1.529964244184612e-08
0, 0, 506, 1.494821866288021e-08
0, 0, 507, 1.470106791856551e-08
0, 0, 508, 1.492789003521011e-08
0, 0, 509, 1.461744147945865e-08
0, 0, 510, 1.451798770091273e-08
0, 0, 511, 1.492143653081257e-08
0, 0, 512, 1.471785715523311e-08
0, 0, 513, 1.486163547781416e-08
0, 0, 514, 1.495562784725735e-08
0, 0, 515, 1.458180154401134e-08
0, 0, 516, 1.483709954896995e-08
0, 0, 517, 1.44189531425809e-08
0, 0, 518, 1.439250585377749e-08
0, 0, 519, 1.442662078687817e-08
0, 0, 520, 1.468013977046212e-08
0, 0, 521, 1.444697872443612e-08
0, 0, 522, 1.442293573461484e-08
0, 0, 523, 1.442909169924178e-08
0, 0, 524, 1.451465792001727e-08
0, 0, 525, 1.423463480421105e-08
0, 0, 526, 1.446311959085733e-08
0, 0, 527, 1.436182994751789e-08
0, 0, 528, 1.466513133152603e-08
0, 0, 529, 1.445400954480647e-08
0, 0, 530, 1.434658791765742e-08
0, 0, 531, 1.467439592062192e-08
0, 0, 532, 1.465606214168247e-08
0, 0, 533, 1.468540666849094e-08
0, 0, 534, 1.472270394486941e-08
0, 0, 535, 1.448321018671095e-08
0, 0, 536, 1.474765021214353e-08
0, 0, 537, 1.441185037975856e-08
0, 0, 538, 1.477896205415163e-08
0, 0, 539, 1.432220919639349e-08
0, 0, 540, 1.415265504789431e-08
0, 0, 541, 1.439299257555149e-08
0, 0, 542, 1.467346066874597e-08
0, 0, 543, 1.421803386136844e-08
0, 0, 544, 1.424322526588639e-08
0, 0, 545, 1.420943807062258e-08
0, 0, 546, 1.418712969325497e-08
0, 0, 547, 1.421382744837274e-08
0, 0, 548, 1.408931105117972e-08
0, 0, 549, 1.410431682558055e-08
0, 0, 550, 1.427783402618843e-08
0, 0, 551, 1.435214347367264e-08
0, 0, 552, 1.427649642948836e-08
0, 0, 553, 1.396526272401388e-08
0, 0, 554, 1.419871065166944e-08
0, 0, 555, 1.414755335105156e-08
0, 0, 556, 1.420094619675183e-08
0, 0, 557, 1.413594041821398e-08
0, 0, 558, 1.405726735015378e-08
0, 0, 559, 1.409704530885847e-08
0, 0, 560, 1.42015537107909e-08
0, 0, 561, 1.418910322570355e-08
0, 0, 562, 1.43098475291481e-08
0, 0, 563, 1.434323504412305e-08
0, 0, 564, 1.396455662217022e-08
0, 0, 565, 1.374366132012028e-08
0, 0, 566, 1.404079519318202e-08
0, 0, 567, 1.377604519348097e-08
0, 0, 568, 1.384698666839768e-08
0, 0, 569, 1.400348370594884e-08
0, 0, 570, 1.388376880129272e-08
0, 0, 571, 1.378016012409944e-08
0, 0, 572, 1.369838642517607e-08
0, 0, 573, 1.392708881553517e-08
0, 0, 574, 1.389382831007424e-08
0, 0, 575, 1.360782242443292e-08
0, 0, 576, 1.401150395707873e-08
0, 0, 577, 1.405418093014532e-08
0, 0, 578, 1.377058023166455e-08
0, 0, 579, 1.449235664807702e-08
0, 0, 580, 1.404186100728566e-08
0, 0, 581, 1.395534887649319e-08
0, 0, 582, 1.362901080881329e-08
0, 0, 583, 1.351970801977131e-08
0, 0, 584, 1.364424839778167e-08
0, 0, 585, 1.380929770533612e-08
0, 0, 586, 1.398479199110625e-08
0, 0, 587, 1.357854451100593e-08
0, 0, 588, 1.374215674587731e-08
0, 0, 589, 1.376826919141649e-08
0, 0, 590, 1.388471115859602e-08
0, 0, 591, 1.392831538993278e-08
0, 0, 592, 1.386842196637872e-08
0, 0, 593, 1.378980307720212e-08
0, 0, 594, 1.391980841702889e-08
0, 0, 595, 1.395154214378636e-08
0, 0, 596, 1.392101189878758e-08
0, 0, 597, 1.389212922475735e-08
0, 0, 598, 1.414054384696328e-08
0, 0, 599, 1.394176152302862e-08
0, 0, 600, 1.393841309038635e-08
0, 0, 601, 1.37532607524804e-08
0, 0, 602, 1.369006241702664e-08
0, 0, 603, 1.362472712429508e-08
0, 0, 604, 1.359059176309074e-08
0, 0, 605, 1.32614159653599e-08
0, 0, 606, 1.337050470340273e-08
0, 0, 607, 1.315600783868831e-08
0, 0, 608, 1.367045587841176e-08
0, 0, 609, 1.375844327355935e-08
0, 0, 610, 1.388736325935724e-08
0, 0, 611, 1.358077561519622e-08
0, 0, 612, 1.361658252818643e-08
0, 0, 613, 1.336971244825236e-08
0, 0, 614, 1.329907295399835e-08
0, 0, 615, 1.337980037874331e-08
0, 0, 616, 1.332086885241779e-08
0, 0, 617, 1.323084752868908e-08
0, 0, 618, 1.324623699616723e-08
0, 0, 619, 1.339195510041691e-08
0, 0, 620, 1.314385933426365e-08
0, 0, 621, 1.333165666750347e-08
0, 0, 622, 1.327415510843366e-08
0, 0, 623, 1.331066545873227e-08
0, 0, 624, 1.370848412562964e-08
0, 0, 625, 1.331368437718083e-08
0, 0, 626, 1.317222597663203e-08
0, 0, 627, 1.319298714719253e-08
0, 0, 628, 1.338976929332603e-08
0, 0, 629, 1.311117792113237e-08
0, 0, 630, 1.314756392645222e-08
0, 0, 631, 1.322147191729073e-08
0, 0, 632, 1.314618014447433e-08
0, 0, 633, 1.307973462871814e-08
0, 0, 634, 1.346362399345935e-08
0, 0, 635, 1.299528928910831e-08
0, 0, 636, 1.292303686284413e-08
0, 0, 637, 1.318467113264887e-08
0, 0, 638, 1.330570942315035e-08
0, 0, 639, 1.30552786359317e-08
0, 0, 640, 1.324859777440679e-08
0, 0, 641, 1.348617928442764e-08
0, 0, 642, 1.331615973043654e-08
0, 0, 643, 1.307845476361535e-08
0, 0, 644, 1.288180317970955e-08
0, 0, 645, 1.301336194359237e-08
0, 0, 646, 1.311909425538715e-08
0, 0, 647, 1.295648655030845e-08
0, 0, 648, 1.30546746746063e-08
0, 0, 649, 1.342782329771808e-08
0, 0, 650, 1.31366029165747e-08
0, 0, 651, 1.321273845888982e-08
0, 0, 652, 1.349320832844114e-08
0, 0, 653, 1.354451573121196e-08
0, 0, 654, 1.328350851537152e-08
0, 0, 655, 1.366576629635574e-08
0, 0, 656, 1.298105178904052e-08
0, 0, 657, 1.299233165497071e-08
0, 0, 658, 1.378159275589041e-08
0, 0, 659, 1.315017872371982e-08
0, 0, 660, 1.305416752472865e-08
0, 0, 661, 1.297306084779848e-08
0, 0, 662, 1.299960405987122e-08
0, 0, 663, 1.309328556686751e-08
0, 0, 664, 1.346407163538288e-08
0, 0, 665, 1.291072670994708e-08
0, 0, 666, 1.322534615155746e-08
0, 0, 667, 1.283400408169655e-08
0, 0, 668, 1.283367545568126e-08
0, 0, 669, 1.315487185848951e-08
0, 0, 670, 1.28777344343689e-08
0, 0, 671, 1.312516229035054e-08
0, 0, 672, 1.278560368689341e-08
0, 0, 673, 1.317105891018855e-08
0, 0, 674, 1.307139285700032e-08
0, 0, 675, 1.321539677689998e-08
0, 0, 676, 1.3303069756887e-08
0, 0, 677, 1.296441176634744e-08
0, 0, 678, 1.327046028620771e-08
0, 0, 679, 1.302735608277317e-08
0, 0, 680, 1.298158025520024e-08
0, 0, 681, 1.282940509383934e-08
0, 0, 682, 1.303387531237377e-08
0, 0, 683, 1.292594298263339e-08
0, 0, 684, 1.281844497214024e-08
0, 0, 685, 1.269922123015021e-08
0, 0, 686, 1.289475015653352e-08
0, 0, 687, 1.29786252855979e-08
0, 0, 688, 1.264364790642958e-08
0, 0, 689, 1.258839432694003e-08
0, 0, 690, 1.263985094368536e-08
0, 0, 691, 1.280539052572749e-08
0, 0, 692, 1.28938522081512e-08
0, 0, 693, 1.281647943329745e-08
0, 0, 694, 1.245955161266465e-08
0, 0, 695, 1.251772729915501e-08
0, 0, 696, 1.259157222932572e-08
0, 0, 697, 1.292380424899875e-08
0, 0, 698, 1.25918235838185e-08
0, 0, 699, 1.244250480425535e-08
0, 0, 700, 1.247662240189129e-08
0, 0, 701, 1.257833215362325e-08
0, 0, 702, 1.236374913560212e-08
0, 0, 703, 1.247437797502471e-08
0, 0, 704, 1.244564273861215e-08
0, 0, 705, 1.246531766696535e-08
0, 0, 706, 1.252019465880494e-08
0, 0, 707, 1.269625471422842e-08
0, 0, 708, 1.274772820636372e-08
0, 0, 709, 1.265141591488828e-08
0, 0, 710, 1.248847691925903e-08
0, 0, 711, 1.274285921226692e-08
0, 0, 712, 1.265970883679302e-08
0, 0, 713, 1.240552460757272e-08
0, 0, 714, 1.229164148242035e-08
0, 0, 715, 1.262308479965668e-08
0, 0, 716, 1.255493842222677e-08
0, 0, 717, 1.230044777145167e-08
0, 0, 718, 1.245341429978453e-08
0, 0, 719, 1.301955876442662e-08
0, 0, 720, 1.253758341590583e-08
0, 0, 721, 1.248763048522505e-08
0, 0, 722, 1.277580707892412e-08
0, 0, 723, 1.225995571729754e-08
0, 0, 724, 1.233612323403577e-08
0, 0, 725, 1.260546600434509e-08
0, 0, 726, 1.232747592894157e-08
0, 0, 727, 1.247136527382509e-08
0, 0, 728, 1.24607213436434e-08
0, 0, 729, 1.208767752558515e-08
0, 0, 730, 1.229914037281787e-08
0, 0, 731, 1.251246750655355e-08
0, 0, 732, 1.234650870429732e-08
0, 0, 733, 1.23670531593234e-08
0, 0, 734, 1.267416038785996e-08
0, 0, 735, 1.266764204643778e-08
0, 0, 736, 1.254282810947416e-08
0, 0, 737, 1.251752657083216e-08
0, 0, 738, 1.233758606389301e-08
0, 0, 739, 1.219660372697717e-08
0, 0, 740, 1.234348534495666e-08
0, 0, 741, 1.226449519720063e-08
0, 0, 742, 1.231169033388824e-08
0, 0, 743, 1.233908353270863e-08
0, 0, 744, 1.253993797689645e-08
0, 0, 745, 1.232157043062898e-08
0, 0, 746, 1.219741108116068e-08
0, 0, 747, 1.233676094614111e-08
0, 0, 748, 1.210081812530461e-08
0, 0, 749, 1.213555211876383e-08
0, 0, 750, 1.239922475804178e-08
0, 0, 751, 1.216013778559955e-08
0, 0, 752, 1.249530523494968e-08
0, 0, 753, 1.222011736246031e-08
0, 0, 754, 1.222106238429888e-08
0, 0, 755, 1.242800706791058e-08
0, 0, 756, 1.239979852130091e-08
0, 0, 757, 1.254050552290664e-08
0, 0, 758, 1.239200475566804e-08
0, 0, 759, 1.237055435865386e-08
0, 0, 760, 1.248567293998804e-08
0, 0, 761, 1.26719621462712e-08
0, 0, 762, 1.214889877587666e-08
0, 0, 763, 1.239436731026444e-08
0, 0, 764, 1.292731610647024e-08
0, 0, 765, 1.273809591140207e-08
0, 0, 766, 1.270114768914254e-08
0, 0, 767, 1.243022218488932e-08
0, 0, 768, 1.265238580572259e-08
0, 0, 769, 1.248283965082919e-08
0, 0, 770, 1.277374916952567e-08
0, 0, 771, 1.227124979408245e-08
0, 0, 772, 1.26569714709035e-08
0, 0, 773, 1.258672366333258e-08
0, 0, 774, 1.224872647753728e-08
0, 0, 775, 1.212167610731285e-08
0, 0, 776, 1.252022574504963e-08
0, 0, 777, 1.230052415479577e-08
0, 0, 778, 1.233316559989817e-08
0, 0, 779, 1.252765180481674e-08
0, 0, 780, 1.22080789921597e-08
0, 0, 781, 1.223517109849581e-08
0, 0, 782, 1.212122047178354e-08
0, 0, 783, 1.240409819303068e-08
0, 0, 784, 1.226902845985478e-08
0, 0, 785, 1.229901247512544e-08
0, 0, 786, 1.192998944077317e-08
0, 0, 787, 1.212646960624397e-08
0, 0, 788, 1.188023901477209e-08
0, 0, 789, 1.204287958245231e-08
0, 0, 790, 1.195090160166501e-08
0, 0, 791, 1.200344623697447e-08
0, 0, 792, 1.194373400181803e-08
0, 0, 793, 1.193588961001524e-08
0, 0, 794, 1.179658593031263e-08
0, 0, 795, 1.196758159238698e-08
0, 0, 796, 1.242642255760984e-08
0, 0, 797, 1.231440016624674e-08
0, 0, 798, 1.248590741909084e-08
0, 0, 799, 1.186380682582922e-08
0, 0, 800, 1.216437173212626e-08
0, 0, 801, 1.20050795970883e-08
0, 0, 802, 1.21143699516324e-08
0, 0, 803, 1.22486012443801e-08
0, 0, 804, 1.216591982711179e-08
0, 0, 805, 1.199663479667379e-08
0, 0, 806, 1.185324904895424e-08
0, 0, 807, 1.201158017494208e-08
0, 0, 808, 1.204841559854231e-08
0, 0, 809, 1.246102421248452e-08
0, 0, 810, 1.214255007653264e-08
0, 0, 811, 1.220642698029906e-08
0, 0, 812, 1.252855508226958e-08
0, 0, 813, 1.196991394891711e-08
0, 0, 814, 1.186731601876545e-08
0, 0, 815, 1.199853993938405e-08
0, 0, 816, 1.196009158377365e-08
0, 0, 817, 1.225052415065875e-08
0, 0, 818, 1.209555122727579e-08
0, 0, 819, 1.197897336879805e-08
0, 0, 820, 1.222339296447217e-08
0, 0, 821, 1.194922294445178e-08
0, 0, 822, 1.189773435328334e-08
0, 0, 823, 1.203407329342099e-08
0, 0, 824, 1.228747059656143e-08
0, 0, 825, 1.19852829882916e-08
0, 0, 826, 1.207610367259804e-08
0, 0, 827, 1.20832703842666e-08
0, 0, 828, 1.197391163998418e-08
0, 0, 829, 1.210695721454158e-08
0, 0, 830, 1.204742883231802e-08
0, 0, 831, 1.183040065910745e-08
0, 0, 832, 1.189286891190022e-08
0, 0, 833, 1.244389746801744e-08
0, 0, 834, 1.197147270204368e-08
0, 0, 835, 1.20171037565342e-08
0, 0, 836, 1.222005430179252e-08
0, 0, 837, 1.217855327695361e-08
0, 0, 838, 1.227237245160495e-08
0, 0, 839, 1.261052240408844e-08
0, 0, 840, 1.212645006631874e-08
0, 0, 841, 1.187290976645272e-08
0, 0, 842, 1.196238486045331e-08
0, 0, 843, 1.216830902706079e-08
0, 0, 844, 1.183189279885255e-08
0, 0, 845, 1.201986687959788e-08
0, 0, 846, 1.180726361127427e-08
0, 0, 847, 1.149701134295356e-08
0, 0, 848, 1.183660547354748e-08
0, 0, 849, 1.163619423039108e-08
0, 0, 850, 1.178391251244193e-08
0, 0, 851, 1.226119650254986e-08
0, 0, 852, 1.167936236612377e-08
0, 0, 853, 1.157520657102395e-08
0, 0, 854, 1.168609653490194e-08
0, 0, 855, 1.168809049545416e-08
0, 0, 856, 1.226314783053795e-08
0, 0, 857, 1.235552993250622e-08
0, 0, 858, 1.170805674632902e-08
0, 0, 859, 1.178830633108419e-08
0, 0, 860, 1.155100193273029e-08
0, 0, 861, 1.171288044332641e-08
0, 0, 862, 1.206134747633314e-08
0, 0, 863, 1.175820418808371e-08
0, 0, 864, 1.18322738273946e-08
0, 0, 865, 1.172004537863813e-08
0, 0, 866, 1.15138121259406e-08
0, 0, 867, 1.156225248877263e-08
0, 0, 868, 1.171696251134335e-08
0, 0, 869, 1.180268593969913e-08
0, 0, 870, 1.171213437345386e-08
0, 0, 871, 1.140611072258935e-08
0, 0, 872, 1.13272191626379e-08
0, 0, 873, 1.151616046968229e-08
0, 0, 874, 1.163343288368424e-08
0, 0, 875, 1.175802122332925e-08
0, 0, 876, 1.160596685423343e-08
0, 0, 877, 1.202484334328346e-08
0, 0, 878, 1.164803187236885e-08
0, 0, 879, 1.14087503888527e-08
0, 0, 880, 1.146873973567608e-08
0, 0, 881, 1.168095220549503e-08
0, 0, 882, 1.166246565986739e-08
0, 0, 883, 1.169055252603357e-08
0, 0, 884, 1.161225338108807e-08
0, 0, 885, 1.170468255651258e-08
0, 0, 886, 1.180114939103305e-08
0, 0, 887, 1.146889339054269e-08
0, 0, 888, 1.155698114985171e-08
0, 0, 889, 1.176210773223829e-08
0, 0, 890, 1.147100103793264e-08
0, 0, 891, 1.143055339269949e-08
0, 0, 892, 1.158555917868398e-08
0, 0, 893, 1.169286978353057e-08
0, 0, 894, 1.148474382262066e-08
0, 0, 895, 1.175128172548057e-08
0, 0, 896, 1.188532738893855e-08
0, 0, 897, 1.136927085809702e-08
0, 0, 898, 1.146229688941958e-08
0, 0, 899, 1.139992900078823e-08
0, 0, 900, 1.120635584328511e-08
0, 0, 901, 1.161327300991388e-08
0, 0, 902, 1.168977092902423e-08
0, 0, 903, 1.134524030277362e-08
0, 0, 904, 1.131258109410282e-08
0, 0, 905, 1.173785335595312e-08
0, 0, 906, 1.154373574507872e-08
