# TOPAS Version: 3.9
# Parameter File: ./bragg_peak/jobs/job1.txt
# Results for scorer: DoseScorer
# Scored in component: Phantom
# R in 1 bin  of 15 cm
# Phi in 1 bin  of 360 deg
# Z in 1000 bins of 0.04 cm
# DoseToMedium ( Gy ) : Sum   
0, 0, 0, 4.889078031311556e-11
0, 0, 1, 5.179830175894296e-11
0, 0, 2, 6.697165738644983e-11
0, 0, 3, 2.534230290895945e-11
0, 0, 4, 2.894953200771599e-11
0, 0, 5, 2.086521233568561e-11
0, 0, 6, 3.331076386947629e-11
0, 0, 7, 3.260748962508053e-11
0, 0, 8, 2.245609774520485e-11
0, 0, 9, 1.078383424224505e-10
0, 0, 10, 2.211297291110359e-11
0, 0, 11, 1.112429245941904e-10
0, 0, 12, 1.792548193213506e-10
0, 0, 13, 1.293650742084651e-10
0, 0, 14, 1.837611590671528e-10
0, 0, 15, 6.597504487171335e-11
0, 0, 16, 6.457102907919676e-11
0, 0, 17, 1.177093422732867e-10
0, 0, 18, 5.962797616776427e-11
0, 0, 19, 6.633398691446857e-11
0, 0, 20, 5.120323262608473e-11
0, 0, 21, 8.253636663013708e-11
0, 0, 22, 5.409270253942111e-11
0, 0, 23, 1.288062156934444e-10
0, 0, 24, 6.530931351278468e-11
0, 0, 25, 8.33442689862629e-11
0, 0, 26, 7.871681778626183e-11
0, 0, 27, 9.407478962497606e-11
0, 0, 28, 1.246142494748526e-10
0, 0, 29, 6.6649803731611e-11
0, 0, 30, 6.050219353292974e-11
0, 0, 31, 5.874581376907884e-11
0, 0, 32, 6.036209726500985e-11
0, 0, 33, 4.265096609223917e-11
0, 0, 34, 5.976452666089926e-11
0, 0, 35, 6.437626126620799e-11
0, 0, 36, 6.388767986864607e-11
0, 0, 37, 1.839308566564668e-10
0, 0, 38, 4.976509135334872e-11
0, 0, 39, 4.672630338209416e-11
0, 0, 40, 4.106234796630304e-11
0, 0, 41, 3.853216704041706e-11
0, 0, 42, 7.028329307434689e-11
0, 0, 43, 5.258664337315366e-11
0, 0, 44, 4.610037698804526e-11
0, 0, 45, 6.679980180113176e-11
0, 0, 46, 5.20253493063727e-11
0, 0, 47, 6.160860710480165e-11
0, 0, 48, 3.866234069005436e-11
0, 0, 49, 6.756766673943204e-11
0, 0, 50, 3.717514490686469e-11
0, 0, 51, 5.356707785675319e-11
0, 0, 52, 5.123821852914823e-11
0, 0, 53, 7.632908194388222e-11
0, 0, 54, 8.000855533651929e-11
0, 0, 55, 7.112253841423666e-11
0, 0, 56, 1.285692247110504e-10
0, 0, 57, 7.463454160250294e-11
0, 0, 58, 6.623589871024294e-11
0, 0, 59, 3.897157596632894e-11
0, 0, 60, 7.294403275848182e-11
0, 0, 61, 7.363016446548798e-11
0, 0, 62, 7.042353505903876e-11
0, 0, 63, 1.877296929020389e-10
0, 0, 64, 6.30301366655317e-11
0, 0, 65, 7.911183513842346e-11
0, 0, 66, 4.276614132270318e-11
0, 0, 67, 5.30704716283914e-11
0, 0, 68, 8.410992735630174e-11
0, 0, 69, 4.702455438931885e-11
0, 0, 70, 4.554500873665823e-11
0, 0, 71, 4.560583161117293e-11
0, 0, 72, 4.387364083147105e-11
0, 0, 73, 5.940634789647348e-11
0, 0, 74, 4.801974443080503e-11
0, 0, 75, 4.474426731904124e-11
0, 0, 76, 3.845246343558983e-11
0, 0, 77, 8.234821852193264e-11
0, 0, 78, 6.221650278304125e-11
0, 0, 79, 7.085191461309037e-11
0, 0, 80, 1.700762863876548e-10
0, 0, 81, 8.653092131716278e-11
0, 0, 82, 1.134993002360751e-10
0, 0, 83, 5.26978877202211e-11
0, 0, 84, 1.31979094319945e-10
0, 0, 85, 1.54366977533904e-10
0, 0, 86, 1.182324377291266e-10
0, 0, 87, 8.379479055076189e-11
0, 0, 88, 1.061396179280472e-10
0, 0, 89, 1.967419838155848e-10
0, 0, 90, 7.521880340810583e-11
0, 0, 91, 7.134472179703977e-11
0, 0, 92, 6.174391553592784e-11
0, 0, 93, 5.382967335765265e-11
0, 0, 94, 5.065338079535131e-11
0, 0, 95, 3.914556873096942e-11
0, 0, 96, 3.908960308218745e-11
0, 0, 97, 9.577767051682784e-11
0, 0, 98, 8.761875253116003e-11
0, 0, 99, 8.682213975541586e-11
0, 0, 100, 1.18655849035143e-10
0, 0, 101, 8.384380689729909e-11
0, 0, 102, 4.743590936717723e-11
0, 0, 103, 4.478571333232928e-11
0, 0, 104, 4.133074785195312e-11
0, 0, 105, 7.890034459112627e-11
0, 0, 106, 9.169550535537141e-11
0, 0, 107, 1.122375109519069e-10
0, 0, 108, 1.313469749630869e-10
0, 0, 109, 1.348534756084874e-10
0, 0, 110, 9.414752311087682e-11
0, 0, 111, 1.296577706311197e-10
0, 0, 112, 9.044234111632576e-11
0, 0, 113, 1.130376070523909e-10
0, 0, 114, 1.415007139238256e-10
0, 0, 115, 5.185980464506024e-11
0, 0, 116, 6.493228177362198e-11
0, 0, 117, 5.060867350192844e-11
0, 0, 118, 3.557663191822158e-11
0, 0, 119, 3.122913733166754e-11
0, 0, 120, 5.759247592718175e-11
0, 0, 121, 2.249883196414615e-10
0, 0, 122, 9.447775894955157e-11
0, 0, 123, 3.668078688012777e-11
0, 0, 124, 8.642334764497051e-11
0, 0, 125, 6.378001599083305e-11
0, 0, 126, 2.305278537506616e-11
0, 0, 127, 2.375385652064743e-11
0, 0, 128, 2.310750549239238e-11
0, 0, 129, 7.315520411665943e-11
0, 0, 130, 1.875949534602128e-10
0, 0, 131, 7.965410969701381e-11
0, 0, 132, 5.288226107014182e-11
0, 0, 133, 3.293720504671249e-11
0, 0, 134, 4.8668773872107e-11
0, 0, 135, 9.316980520424067e-11
0, 0, 136, 6.733097412947586e-11
0, 0, 137, 6.931320795100504e-11
0, 0, 138, 6.595330531711241e-11
0, 0, 139, 1.81560322332075e-11
0, 0, 140, 1.611838960913214e-11
0, 0, 141, 2.561456949323748e-11
0, 0, 142, 1.458631652961895e-11
0, 0, 143, 3.494039432783147e-11
0, 0, 144, 1.483579578631655e-11
0, 0, 145, 1.309777286628844e-11
0, 0, 146, 1.913689866295254e-11
0, 0, 147, 6.64540922290513e-11
0, 0, 148, 3.600338777109968e-11
0, 0, 149, 6.001871222238719e-11
0, 0, 150, 8.524901617956715e-11
0, 0, 151, 4.17640262651009e-11
0, 0, 152, 2.806248983189263e-11
0, 0, 153, 4.254499877398565e-11
0, 0, 154, 1.054194578853362e-11
0, 0, 155, 1.015717648877867e-10
0, 0, 156, 1.790357792574859e-11
0, 0, 157, 1.354719548346539e-11
0, 0, 158, 2.778645716294825e-11
0, 0, 159, 4.966363084668579e-11
0, 0, 160, 7.253564415776736e-11
0, 0, 161, 1.686491502006504e-10
0, 0, 162, 6.703543276032065e-11
0, 0, 163, 6.259238960470981e-11
0, 0, 164, 4.886728521835693e-11
0, 0, 165, 6.811519404070765e-11
0, 0, 166, 7.992712047766304e-11
0, 0, 167, 1.929489346075286e-10
0, 0, 168, 1.670867749714589e-10
0, 0, 169, 5.69626464053119e-11
0, 0, 170, 5.448166917609853e-11
0, 0, 171, 8.189517120005263e-11
0, 0, 172, 6.125415452640226e-11
0, 0, 173, 1.635032387259372e-10
0, 0, 174, 9.077524842915352e-11
0, 0, 175, 5.860813223623751e-11
0, 0, 176, 5.412010770089459e-11
0, 0, 177, 1.142044098179085e-10
0, 0, 178, 1.494539214608182e-10
0, 0, 179, 8.017529695703018e-11
0, 0, 180, 6.43516004372735e-11
0, 0, 181, 8.946629548312046e-11
0, 0, 182, 6.176723021944497e-11
0, 0, 183, 4.448063792295009e-11
0, 0, 184, 9.039069492899898e-11
0, 0, 185, 6.862024143350354e-11
0, 0, 186, 5.132760189097141e-11
0, 0, 187, 6.363180121704559e-11
0, 0, 188, 8.735558110206654e-11
0, 0, 189, 5.870948865949188e-11
0, 0, 190, 1.25221291669142e-10
0, 0, 191, 9.257940247753282e-11
0, 0, 192, 8.65014726514346e-11
0, 0, 193, 5.647766629368611e-11
0, 0, 194, 5.800140923106767e-11
0, 0, 195, 1.049428738353342e-10
0, 0, 196, 6.639410549125202e-11
0, 0, 197, 4.47709161410792e-11
0, 0, 198, 9.440177112240988e-11
0, 0, 199, 6.545295555548947e-11
0, 0, 200, 6.426714715956905e-11
0, 0, 201, 8.441011778437257e-11
0, 0, 202, 1.076381692111106e-10
0, 0, 203, 7.59722701415555e-11
0, 0, 204, 1.126060494849312e-10
0, 0, 205, 6.157756943236947e-11
0, 0, 206, 9.737873701842759e-11
0, 0, 207, 9.999675393279617e-11
0, 0, 208, 1.113056175006122e-10
0, 0, 209, 7.112366945394299e-11
0, 0, 210, 9.285645169443413e-11
0, 0, 211, 1.808002636494166e-10
0, 0, 212, 6.331585256091898e-11
0, 0, 213, 6.297821292244876e-11
0, 0, 214, 9.155599195453945e-11
0, 0, 215, 1.34318639544162e-10
0, 0, 216, 1.233476654149968e-10
0, 0, 217, 9.973393638729178e-11
0, 0, 218, 1.117187939381203e-10
0, 0, 219, 1.553876888271688e-10
0, 0, 220, 1.239224556304208e-10
0, 0, 221, 6.932478202603676e-11
0, 0, 222, 8.996049044585064e-11
0, 0, 223, 3.104992929436889e-10
0, 0, 224, 7.012361524783017e-11
0, 0, 225, 1.275321931393236e-10
0, 0, 226, 1.067653118691503e-10
0, 0, 227, 7.938175811128545e-11
0, 0, 228, 1.604929106280295e-10
0, 0, 229, 1.312291386668107e-10
0, 0, 230, 9.300940573275795e-11
0, 0, 231, 1.097210031164586e-10
0, 0, 232, 9.36186267397332e-11
0, 0, 233, 1.272134619867415e-10
0, 0, 234, 1.510604419330264e-10
0, 0, 235, 1.58457913457255e-10
0, 0, 236, 8.315291510907485e-11
0, 0, 237, 7.062982143590801e-11
0, 0, 238, 1.280748146426092e-10
0, 0, 239, 1.281953571075078e-10
0, 0, 240, 1.164107074624887e-10
0, 0, 241, 1.00881268616515e-10
0, 0, 242, 1.397907067879345e-10
0, 0, 243, 1.170749192036524e-10
0, 0, 244, 6.529599777538309e-11
0, 0, 245, 7.606240637336725e-11
0, 0, 246, 5.366741426260369e-11
0, 0, 247, 7.422395337242094e-11
0, 0, 248, 9.402133238634036e-11
0, 0, 249, 8.613775664967349e-11
0, 0, 250, 6.968434856924333e-11
0, 0, 251, 6.021840665004774e-11
0, 0, 252, 9.539395662283567e-11
0, 0, 253, 1.204145672062396e-10
0, 0, 254, 1.170545466111506e-10
0, 0, 255, 1.174763619715691e-10
0, 0, 256, 1.435114804770876e-10
0, 0, 257, 1.428018953086863e-10
0, 0, 258, 8.676290241815821e-11
0, 0, 259, 1.51221354882658e-10
0, 0, 260, 2.784432684421745e-10
0, 0, 261, 1.008107139433001e-10
0, 0, 262, 1.380655173521816e-10
0, 0, 263, 1.182419995249262e-10
0, 0, 264, 2.018984007756686e-10
0, 0, 265, 2.431378987033384e-10
0, 0, 266, 4.860975511000731e-10
0, 0, 267, 5.157690385892977e-10
0, 0, 268, 6.5429073270451e-10
0, 0, 269, 9.34514021722066e-10
0, 0, 270, 1.156360340814899e-09
0, 0, 271, 1.563440932272897e-09
0, 0, 272, 2.093638817868282e-09
0, 0, 273, 2.744168003943059e-09
0, 0, 274, 3.54126883372885e-09
0, 0, 275, 4.457025415405269e-09
0, 0, 276, 5.599127828048722e-09
0, 0, 277, 7.266490076318632e-09
0, 0, 278, 9.034067716129357e-09
0, 0, 279, 1.080715872348037e-08
0, 0, 280, 1.317424480618001e-08
0, 0, 281, 1.580050223992657e-08
0, 0, 282, 1.754698253364495e-08
0, 0, 283, 2.038367874490632e-08
0, 0, 284, 2.247748653871895e-08
0, 0, 285, 2.563853307435693e-08
0, 0, 286, 2.845334812207057e-08
0, 0, 287, 3.171625806430711e-08
0, 0, 288, 3.317337160524403e-08
0, 0, 289, 3.493173039714748e-08
0, 0, 290, 3.725173058910514e-08
0, 0, 291, 3.805213211194314e-08
0, 0, 292, 3.975021201085838e-08
0, 0, 293, 4.20874961548634e-08
0, 0, 294, 4.273128340059884e-08
0, 0, 295, 4.278836840398981e-08
0, 0, 296, 4.319383961615131e-08
0, 0, 297, 4.376926199256559e-08
0, 0, 298, 4.324965985347262e-08
0, 0, 299, 4.188276392369517e-08
0, 0, 300, 4.159491240329771e-08
0, 0, 301, 4.167558032008856e-08
0, 0, 302, 4.080603943634742e-08
0, 0, 303, 4.017091015384722e-08
0, 0, 304, 3.964172279324885e-08
0, 0, 305, 3.885361010702582e-08
0, 0, 306, 3.786788127513319e-08
0, 0, 307, 3.702772488622941e-08
0, 0, 308, 3.605371290404946e-08
0, 0, 309, 3.547061311337529e-08
0, 0, 310, 3.445541452151701e-08
0, 0, 311, 3.378507429374622e-08
0, 0, 312, 3.293751404953582e-08
0, 0, 313, 3.241262902520248e-08
0, 0, 314, 3.194698194874945e-08
0, 0, 315, 3.121209957157589e-08
0, 0, 316, 3.062263687070299e-08
0, 0, 317, 3.062342202042601e-08
0, 0, 318, 2.945752797245405e-08
0, 0, 319, 2.900964446439502e-08
0, 0, 320, 2.890043226955186e-08
0, 0, 321, 2.87893406891726e-08
0, 0, 322, 2.8409996133405e-08
0, 0, 323, 2.769657569956507e-08
0, 0, 324, 2.744197757920119e-08
0, 0, 325, 2.705126966873195e-08
0, 0, 326, 2.67647166651841e-08
0, 0, 327, 2.63455941507118e-08
0, 0, 328, 2.605411708600514e-08
0, 0, 329, 2.556012645982264e-08
0, 0, 330, 2.550720346050639e-08
0, 0, 331, 2.488964589986153e-08
0, 0, 332, 2.501816886990582e-08
0, 0, 333, 2.477300675707284e-08
0, 0, 334, 2.443631430537607e-08
0, 0, 335, 2.426951262179955e-08
0, 0, 336, 2.40280897401135e-08
0, 0, 337, 2.367533369351804e-08
0, 0, 338, 2.358593498286154e-08
0, 0, 339, 2.343361593659665e-08
0, 0, 340, 2.311990598968805e-08
0, 0, 341, 2.31736496658641e-08
0, 0, 342, 2.336840232430859e-08
0, 0, 343, 2.297447387888951e-08
0, 0, 344, 2.282509292683699e-08
0, 0, 345, 2.272571819617042e-08
0, 0, 346, 2.249334407622428e-08
0, 0, 347, 2.252535757918395e-08
0, 0, 348, 2.220389738738504e-08
0, 0, 349, 2.226079764966471e-08
0, 0, 350, 2.209644378581288e-08
0, 0, 351, 2.176860114389001e-08
0, 0, 352, 2.157059597607258e-08
0, 0, 353, 2.160386003424719e-08
0, 0, 354, 2.146181188322771e-08
0, 0, 355, 2.083204897473934e-08
0, 0, 356, 2.07133208363075e-08
0, 0, 357, 2.072798466201675e-08
0, 0, 358, 2.060816406412869e-08
0, 0, 359, 2.077367788899664e-08
0, 0, 360, 2.050226299843416e-08
0, 0, 361, 2.01747365480287e-08
0, 0, 362, 2.038435376050529e-08
0, 0, 363, 2.060549242344223e-08
0, 0, 364, 2.034158441688305e-08
0, 0, 365, 2.047570468732829e-08
0, 0, 366, 1.99938465783589e-08
0, 0, 367, 2.000582988159749e-08
0, 0, 368, 1.996981247032181e-08
0, 0, 369, 1.972332341892979e-08
0, 0, 370, 1.987748277088031e-08
0, 0, 371, 1.972541419092977e-08
0, 0, 372, 1.960428974712158e-08
0, 0, 373, 1.970641427817554e-08
0, 0, 374, 1.966795970531621e-08
0, 0, 375, 1.998976451034196e-08
0, 0, 376, 1.985390873926463e-08
0, 0, 377, 1.951516281906152e-08
0, 0, 378, 1.909125479926388e-08
0, 0, 379, 1.909350189066572e-08
0, 0, 380, 1.901099189183242e-08
0, 0, 381, 1.903983815054744e-08
0, 0, 382, 1.917588754452026e-08
0, 0, 383, 1.881496380917724e-08
0, 0, 384, 1.884093947523979e-08
0, 0, 385, 1.859876874732436e-08
0, 0, 386, 1.841622854215075e-08
0, 0, 387, 1.852815678660136e-08
0, 0, 388, 1.832050955385967e-08
0, 0, 389, 1.819134887171003e-08
0, 0, 390, 1.820775352712189e-08
0, 0, 391, 1.840680674547457e-08
0, 0, 392, 1.834169083281267e-08
0, 0, 393, 1.803142346545883e-08
0, 0, 394, 1.816453298886245e-08
0, 0, 395, 1.806158245187817e-08
0, 0, 396, 1.805453742065311e-08
0, 0, 397, 1.813165795283567e-08
0, 0, 398, 1.792067649830642e-08
0, 0, 399, 1.790023773651228e-08
0, 0, 400, 1.766850132867148e-08
0, 0, 401, 1.758216150449243e-08
0, 0, 402, 1.777552860460219e-08
0, 0, 403, 1.745430466826292e-08
0, 0, 404, 1.753037714991024e-08
0, 0, 405, 1.734899690575276e-08
0, 0, 406, 1.731519994052633e-08
0, 0, 407, 1.733802790226946e-08
0, 0, 408, 1.742119870584702e-08
0, 0, 409, 1.730421317347464e-08
0, 0, 410, 1.752391298737166e-08
0, 0, 411, 1.738937882578284e-08
0, 0, 412, 1.75668493085368e-08
0, 0, 413, 1.754460754455067e-08
0, 0, 414, 1.724593801100127e-08
0, 0, 415, 1.709770636182384e-08
0, 0, 416, 1.721128661813509e-08
0, 0, 417, 1.728960263847057e-08
0, 0, 418, 1.708402308508994e-08
0, 0, 419, 1.745143407561045e-08
0, 0, 420, 1.680247230240184e-08
0, 0, 421, 1.669009108695718e-08
0, 0, 422, 1.689708284402514e-08
0, 0, 423, 1.677473626671144e-08
0, 0, 424, 1.658650106151072e-08
0, 0, 425, 1.659208415105695e-08
0, 0, 426, 1.683414474484834e-08
0, 0, 427, 1.67800227046655e-08
0, 0, 428, 1.672941074559731e-08
0, 0, 429, 1.679926597830672e-08
0, 0, 430, 1.65671902863096e-08
0, 0, 431, 1.658824722028385e-08
0, 0, 432, 1.631505419652513e-08
0, 0, 433, 1.638840707585132e-08
0, 0, 434, 1.668743543348228e-08
0, 0, 435, 1.632775514792684e-08
0, 0, 436, 1.628580470480756e-08
0, 0, 437, 1.656174042352632e-08
0, 0, 438, 1.657157433498924e-08
0, 0, 439, 1.632044188681903e-08
0, 0, 440, 1.673509864019707e-08
0, 0, 441, 1.649707570550163e-08
0, 0, 442, 1.623868506328563e-08
0, 0, 443, 1.617625500216491e-08
0, 0, 444, 1.625095613633221e-08
0, 0, 445, 1.657874193483622e-08
0, 0, 446, 1.643868863254738e-08
0, 0, 447, 1.679461369974433e-08
0, 0, 448, 1.65195039869559e-08
0, 0, 449, 1.608986366363752e-08
0, 0, 450, 1.629164536609551e-08
0, 0, 451, 1.621135581331146e-08
0, 0, 452, 1.63043001322194e-08
0, 0, 453, 1.615928368892128e-08
0, 0, 454, 1.593373255559527e-08
0, 0, 455, 1.595729948178359e-08
0, 0, 456, 1.589718934269513e-08
0, 0, 457, 1.588155029708105e-08
0, 0, 458, 1.590483300617507e-08
0, 0, 459, 1.570580643317498e-08
0, 0, 460, 1.592036547037878e-08
0, 0, 461, 1.572669106053581e-08
0, 0, 462, 1.60092241685561e-08
0, 0, 463, 1.574900565515236e-08
0, 0, 464, 1.570886354329559e-08
0, 0, 465, 1.552319872644148e-08
0, 0, 466, 1.557312501176966e-08
0, 0, 467, 1.543624961186651e-08
0, 0, 468, 1.546777639305219e-08
0, 0, 469, 1.55520449851565e-08
0, 0, 470, 1.563123142034328e-08
0, 0, 471, 1.536979432614771e-08
0, 0, 472, 1.528655602101026e-08
0, 0, 473, 1.514140990366286e-08
0, 0, 474, 1.539475213974129e-08
0, 0, 475, 1.525877557639888e-08
0, 0, 476, 1.514981384787006e-08
0, 0, 477, 1.513702585498322e-08
0, 0, 478, 1.537810412344243e-08
0, 0, 479, 1.537198457413069e-08
0, 0, 480, 1.497152624096998e-08
0, 0, 481, 1.509210889594215e-08
0, 0, 482, 1.529588544713079e-08
0, 0, 483, 1.516599112960648e-08
0, 0, 484, 1.489995327119686e-08
0, 0, 485, 1.474883237762015e-08
0, 0, 486, 1.486194722843948e-08
0, 0, 487, 1.531487470174397e-08
0, 0, 488, 1.495170032228543e-08
0, 0, 489, 1.521541648230595e-08
0, 0, 490, 1.510448122132857e-08
0, 0, 491, 1.511829061939807e-08
0, 0, 492, 1.503057411866848e-08
0, 0, 493, 1.480554967514536e-08
0, 0, 494, 1.511823199962237e-08
0, 0, 495, 1.495008383756158e-08
0, 0, 496, 1.505749480656959e-08
0, 0, 497, 1.478599553905724e-08
0, 0, 498, 1.488981737907125e-08
0, 0, 499, 1.477559052887045e-08
0, 0, 500, 1.468974808460644e-08
0, 0, 501, 1.482110079109589e-08
0, 0, 502, 1.474692012948253e-08
0, 0, 503, 1.468555765882229e-08
0, 0, 504, 1.464649734828072e-08
0, 0, 505, 1.485091694064522e-08
0, 0, 506, 1.475008204465666e-08
0, 0, 507, 1.446538266947073e-08
0, 0, 508, 1.459117004998234e-08
0, 0, 509, 1.48089149831776e-08
0, 0, 510, 1.493735801716412e-08
0, 0, 511, 1.447423958467198e-08
0, 0, 512, 1.457486398237506e-08
0, 0, 513, 1.473207600355408e-08
0, 0, 514, 1.438078367499429e-08
0, 0, 515, 1.447130326681645e-08
0, 0, 516, 1.45776564153266e-08
0, 0, 517, 1.435007845884684e-08
0, 0, 518, 1.49443408758998e-08
0, 0, 519, 1.438551677779287e-08
0, 0, 520, 1.434449004023008e-08
0, 0, 521, 1.437862717779126e-08
0, 0, 522, 1.493182288925254e-08
0, 0, 523, 1.465864585270538e-08
0, 0, 524, 1.44397462875645e-08
0, 0, 525, 1.431724250267052e-08
0, 0, 526, 1.406712257789877e-08
0, 0, 527, 1.465222965180146e-08
0, 0, 528, 1.472525568146921e-08
0, 0, 529, 1.434578233983075e-08
0, 0, 530, 1.458583653857204e-08
0, 0, 531, 1.467530541532369e-08
0, 0, 532, 1.418586315082848e-08
0, 0, 533, 1.416811024057552e-08
0, 0, 534, 1.446642805547071e-08
0, 0, 535, 1.449598130420782e-08
0, 0, 536, 1.45040779386818e-08
0, 0, 537, 1.476545108403116e-08
0, 0, 538, 1.445223940521601e-08
0, 0, 539, 1.463303522797332e-08
0, 0, 540, 1.435023566642712e-08
0, 0, 541, 1.429726115276253e-08
0, 0, 542, 1.454992304417146e-08
0, 0, 543, 1.468199517518087e-08
0, 0, 544, 1.447320041592093e-08
0, 0, 545, 1.436308405544651e-08
0, 0, 546, 1.42340370601346e-08
0, 0, 547, 1.4405269865847e-08
0, 0, 548, 1.425887408146309e-08
0, 0, 549, 1.410330963125261e-08
0, 0, 550, 1.395293658390528e-08
0, 0, 551, 1.410050209926794e-08
0, 0, 552, 1.411953931551579e-08
0, 0, 553, 1.410894867603929e-08
0, 0, 554, 1.397292859195431e-08
0, 0, 555, 1.438902685890753e-08
0, 0, 556, 1.409419425613123e-08
0, 0, 557, 1.406774075007888e-08
0, 0, 558, 1.417233530531803e-08
0, 0, 559, 1.389676818064345e-08
0, 0, 560, 1.41348772686456e-08
0, 0, 561, 1.414208838923514e-08
0, 0, 562, 1.382385228509975e-08
0, 0, 563, 1.437079166777266e-08
0, 0, 564, 1.431463303447345e-08
0, 0, 565, 1.423729045768596e-08
0, 0, 566, 1.450704090188992e-08
0, 0, 567, 1.465031562730701e-08
0, 0, 568, 1.44386866907098e-08
0, 0, 569, 1.407216920767951e-08
0, 0, 570, 1.394555759759442e-08
0, 0, 571, 1.407704619538208e-08
0, 0, 572, 1.395564463990695e-08
0, 0, 573, 1.38861757648101e-08
0, 0, 574, 1.402411875517373e-08
0, 0, 575, 1.388641734934026e-08
0, 0, 576, 1.398859339474257e-08
0, 0, 577, 1.396324478264432e-08
0, 0, 578, 1.36054589816581e-08
0, 0, 579, 1.37186715321036e-08
0, 0, 580, 1.4161297023918e-08
0, 0, 581, 1.393503712421307e-08
0, 0, 582, 1.384647063673583e-08
0, 0, 583, 1.36427393826466e-08
0, 0, 584, 1.380227487857155e-08
0, 0, 585, 1.393804271998533e-08
0, 0, 586, 1.382894332380147e-08
0, 0, 587, 1.376495006866207e-08
0, 0, 588, 1.361866264204536e-08
0, 0, 589, 1.384562953177237e-08
0, 0, 590, 1.35381785781874e-08
0, 0, 591, 1.409060601531564e-08
0, 0, 592, 1.3386224573253e-08
0, 0, 593, 1.358249424043834e-08
0, 0, 594, 1.373872393628517e-08
0, 0, 595, 1.404885896505448e-08
0, 0, 596, 1.394767856766066e-08
0, 0, 597, 1.36062521249869e-08
0, 0, 598, 1.369902768999509e-08
0, 0, 599, 1.424730911026018e-08
0, 0, 600, 1.418823636356592e-08
0, 0, 601, 1.389317638711418e-08
0, 0, 602, 1.373141422789104e-08
0, 0, 603, 1.364669000025742e-08
0, 0, 604, 1.396163007427731e-08
0, 0, 605, 1.398848858968904e-08
0, 0, 606, 1.380248360050018e-08
0, 0, 607, 1.389629566972417e-08
0, 0, 608, 1.362981105756944e-08
0, 0, 609, 1.364361335021158e-08
0, 0, 610, 1.337546606805518e-08
0, 0, 611, 1.357640933008497e-08
0, 0, 612, 1.347684808195027e-08
0, 0, 613, 1.357404055823963e-08
0, 0, 614, 1.343808975207139e-08
0, 0, 615, 1.365490209792597e-08
0, 0, 616, 1.35911983889514e-08
0, 0, 617, 1.358735524092936e-08
0, 0, 618, 1.341197020110485e-08
0, 0, 619, 1.339005883949085e-08
0, 0, 620, 1.319929499032924e-08
0, 0, 621, 1.321288589650749e-08
0, 0, 622, 1.342934030645893e-08
0, 0, 623, 1.310518982222675e-08
0, 0, 624, 1.335333088547941e-08
0, 0, 625, 1.322703901962541e-08
0, 0, 626, 1.334112731399273e-08
0, 0, 627, 1.306568542247533e-08
0, 0, 628, 1.311910047263609e-08
0, 0, 629, 1.349675393669258e-08
0, 0, 630, 1.341155542178285e-08
0, 0, 631, 1.353165224315944e-08
0, 0, 632, 1.355550161008523e-08
0, 0, 633, 1.363405299770193e-08
0, 0, 634, 1.370819546764324e-08
0, 0, 635, 1.327102250314738e-08
0, 0, 636, 1.316689690611383e-08
0, 0, 637, 1.339948418888071e-08
0, 0, 638, 1.36702862363336e-08
0, 0, 639, 1.320653897352031e-08
0, 0, 640, 1.348705147563578e-08
0, 0, 641, 1.353676637450008e-08
0, 0, 642, 1.406741390042043e-08
0, 0, 643, 1.365956681098623e-08
0, 0, 644, 1.317412046120126e-08
0, 0, 645, 1.350083245199585e-08
0, 0, 646, 1.323213805193291e-08
0, 0, 647, 1.342730904241307e-08
0, 0, 648, 1.352224465733798e-08
0, 0, 649, 1.360991941368184e-08
0, 0, 650, 1.332406007747977e-08
0, 0, 651, 1.317339570761078e-08
0, 0, 652, 1.327401299988651e-08
0, 0, 653, 1.299281748856629e-08
0, 0, 654, 1.357198442519802e-08
0, 0, 655, 1.326217091701665e-08
0, 0, 656, 1.308305463965098e-08
0, 0, 657, 1.343670774645034e-08
0, 0, 658, 1.360523693705318e-08
0, 0, 659, 1.329834287133735e-08
0, 0, 660, 1.325308218724786e-08
0, 0, 661, 1.33614639352686e-08
0, 0, 662, 1.326718201966059e-08
0, 0, 663, 1.306119923327742e-08
0, 0, 664, 1.30853097246586e-08
0, 0, 665, 1.318165665509241e-08
0, 0, 666, 1.34343975943807e-08
0, 0, 667, 1.34632474058094e-08
0, 0, 668, 1.296189733324127e-08
0, 0, 669, 1.271690663884328e-08
0, 0, 670, 1.299346141792057e-08
0, 0, 671, 1.350071077155235e-08
0, 0, 672, 1.326862530959261e-08
0, 0, 673, 1.314725217582691e-08
0, 0, 674, 1.302839791605948e-08
0, 0, 675, 1.298729213061733e-08
0, 0, 676, 1.308320118909023e-08
0, 0, 677, 1.276929317839404e-08
0, 0, 678, 1.286629558450159e-08
0, 0, 679, 1.302453433993378e-08
0, 0, 680, 1.312063524494533e-08
0, 0, 681, 1.324181120310186e-08
0, 0, 682, 1.276549177475772e-08
0, 0, 683, 1.291713758178048e-08
0, 0, 684, 1.295890150743162e-08
0, 0, 685, 1.296508234105431e-08
0, 0, 686, 1.2854926012551e-08
0, 0, 687, 1.284346140550952e-08
0, 0, 688, 1.373515878810849e-08
0, 0, 689, 1.263002946672032e-08
0, 0, 690, 1.250992998080847e-08
0, 0, 691, 1.274109706628224e-08
0, 0, 692, 1.247549974436879e-08
0, 0, 693, 1.26597035077225e-08
0, 0, 694, 1.321183873415066e-08
0, 0, 695, 1.256212023292846e-08
0, 0, 696, 1.265643767567326e-08
0, 0, 697, 1.30513653218145e-08
0, 0, 698, 1.265674853812015e-08
0, 0, 699, 1.241034031096433e-08
0, 0, 700, 1.241200831003653e-08
0, 0, 701, 1.272997351975391e-08
0, 0, 702, 1.276503880376367e-08
0, 0, 703, 1.287973017127797e-08
0, 0, 704, 1.251471282159855e-08
0, 0, 705, 1.280970174377671e-08
0, 0, 706, 1.293677609481847e-08
0, 0, 707, 1.302371988032291e-08
0, 0, 708, 1.244600600358581e-08
0, 0, 709, 1.278691197370563e-08
0, 0, 710, 1.27598509536142e-08
0, 0, 711, 1.275724681448764e-08
0, 0, 712, 1.252875581059243e-08
0, 0, 713, 1.267663840565092e-08
0, 0, 714, 1.261251725281909e-08
0, 0, 715, 1.248698211497867e-08
0, 0, 716, 1.262689242054194e-08
0, 0, 717, 1.268680716037807e-08
0, 0, 718, 1.262566851067959e-08
0, 0, 719, 1.30257120645183e-08
0, 0, 720, 1.280334593900534e-08
0, 0, 721, 1.276782590764469e-08
0, 0, 722, 1.321455833647178e-08
0, 0, 723, 1.289324824682581e-08
0, 0, 724, 1.274736050049796e-08
0, 0, 725, 1.289924700387246e-08
0, 0, 726, 1.287307593855758e-08
0, 0, 727, 1.263213267321817e-08
0, 0, 728, 1.238900981803681e-08
0, 0, 729, 1.260108017930861e-08
0, 0, 730, 1.273147987035372e-08
0, 0, 731, 1.26896670948895e-08
0, 0, 732, 1.272173655308961e-08
0, 0, 733, 1.279148786892392e-08
0, 0, 734, 1.254260517669081e-08
0, 0, 735, 1.274499616954472e-08
0, 0, 736, 1.244247016529698e-08
0, 0, 737, 1.235341251515365e-08
0, 0, 738, 1.247229874934419e-08
0, 0, 739, 1.234507518432792e-08
0, 0, 740, 1.223736223465721e-08
0, 0, 741, 1.219733825053027e-08
0, 0, 742, 1.217310874324085e-08
0, 0, 743, 1.228718193857503e-08
0, 0, 744, 1.236806923543554e-08
0, 0, 745, 1.224822110401647e-08
0, 0, 746, 1.244075598094696e-08
0, 0, 747, 1.259142834442173e-08
0, 0, 748, 1.244097269648137e-08
0, 0, 749, 1.250205627911782e-08
0, 0, 750, 1.263114413063704e-08
0, 0, 751, 1.23658807638094e-08
0, 0, 752, 1.259113169282955e-08
0, 0, 753, 1.24699051085031e-08
0, 0, 754, 1.213084299678258e-08
0, 0, 755, 1.238870073194676e-08
0, 0, 756, 1.270116900542462e-08
0, 0, 757, 1.246755676476141e-08
0, 0, 758, 1.223219392443298e-08
0, 0, 759, 1.216429890149584e-08
0, 0, 760, 1.217926381968937e-08
0, 0, 761, 1.215924072539565e-08
0, 0, 762, 1.266190263748967e-08
0, 0, 763, 1.232712598664421e-08
0, 0, 764, 1.247562320116913e-08
0, 0, 765, 1.268532923148769e-08
0, 0, 766, 1.237934021958154e-08
0, 0, 767, 1.220774503707389e-08
0, 0, 768, 1.241164238052761e-08
0, 0, 769, 1.224904355723311e-08
0, 0, 770, 1.197213705950162e-08
0, 0, 771, 1.221730450140512e-08
0, 0, 772, 1.233748925244527e-08
0, 0, 773, 1.230951696129523e-08
0, 0, 774, 1.258398896197832e-08
0, 0, 775, 1.258503790069199e-08
0, 0, 776, 1.233873003769759e-08
0, 0, 777, 1.243024172481455e-08
0, 0, 778, 1.23711512145519e-08
0, 0, 779, 1.210124001005397e-08
0, 0, 780, 1.229265489399722e-08
0, 0, 781, 1.220991485695322e-08
0, 0, 782, 1.216241063417556e-08
0, 0, 783, 1.238512137291536e-08
0, 0, 784, 1.231474477947359e-08
0, 0, 785, 1.214954448158778e-08
0, 0, 786, 1.238105085121788e-08
0, 0, 787, 1.250650871753578e-08
0, 0, 788, 1.22870948970899e-08
0, 0, 789, 1.228032964206704e-08
0, 0, 790, 1.259787918428401e-08
0, 0, 791, 1.274467908984889e-08
0, 0, 792, 1.225421542017102e-08
0, 0, 793, 1.223166368191642e-08
0, 0, 794, 1.214998679444079e-08
0, 0, 795, 1.26167378766695e-08
0, 0, 796, 1.230106150273969e-08
0, 0, 797, 1.225039092389579e-08
0, 0, 798, 1.207208732978415e-08
0, 0, 799, 1.210940059337418e-08
0, 0, 800, 1.230022483866833e-08
0, 0, 801, 1.211049038829515e-08
0, 0, 802, 1.195783116969551e-08
0, 0, 803, 1.227580170848341e-08
0, 0, 804, 1.202456711979494e-08
0, 0, 805, 1.222232448583327e-08
0, 0, 806, 1.236912972046866e-08
0, 0, 807, 1.210756828129433e-08
0, 0, 808, 1.252443926347269e-08
0, 0, 809, 1.202198340877203e-08
0, 0, 810, 1.208928956941691e-08
0, 0, 811, 1.188507958715945e-08
0, 0, 812, 1.189273213242359e-08
0, 0, 813, 1.201974342279755e-08
0, 0, 814, 1.180151798507723e-08
0, 0, 815, 1.185588960339601e-08
0, 0, 816, 1.205043709262554e-08
0, 0, 817, 1.192712417719122e-08
0, 0, 818, 1.20186909313702e-08
0, 0, 819, 1.22813599290339e-08
0, 0, 820, 1.188781872940581e-08
0, 0, 821, 1.183286180150844e-08
0, 0, 822, 1.177656283601891e-08
0, 0, 823, 1.173138386434402e-08
0, 0, 824, 1.156382545275392e-08
0, 0, 825, 1.216631062561646e-08
0, 0, 826, 1.215146383515275e-08
0, 0, 827, 1.224495616014565e-08
0, 0, 828, 1.194460352849092e-08
0, 0, 829, 1.220156686798646e-08
0, 0, 830, 1.20725989205539e-08
0, 0, 831, 1.186647580198041e-08
0, 0, 832, 1.222615786389269e-08
0, 0, 833, 1.161310070330046e-08
0, 0, 834, 1.181584163845173e-08
0, 0, 835, 1.20919763091365e-08
0, 0, 836, 1.174073283038979e-08
0, 0, 837, 1.22999486151798e-08
0, 0, 838, 1.1829487611692e-08
0, 0, 839, 1.196317445106843e-08
0, 0, 840, 1.207960842464217e-08
0, 0, 841, 1.208955158205072e-08
0, 0, 842, 1.234095847735261e-08
0, 0, 843, 1.176467101515755e-08
0, 0, 844, 1.195462662195723e-08
0, 0, 845, 1.172655750281137e-08
0, 0, 846, 1.17312204395148e-08
0, 0, 847, 1.174711883322743e-08
0, 0, 848, 1.16589626841801e-08
0, 0, 849, 1.18970202578339e-08
0, 0, 850, 1.183899467349647e-08
0, 0, 851, 1.182327213911094e-08
0, 0, 852, 1.176874597774713e-08
0, 0, 853, 1.185914300094737e-08
0, 0, 854, 1.178237862831111e-08
0, 0, 855, 1.16560006091504e-08
0, 0, 856, 1.183888187483717e-08
0, 0, 857, 1.16976455188933e-08
0, 0, 858, 1.189137499579829e-08
0, 0, 859, 1.175684438692315e-08
0, 0, 860, 1.247104464141557e-08
0, 0, 861, 1.212987577048352e-08
0, 0, 862, 1.180912345688512e-08
0, 0, 863, 1.190334053546849e-08
0, 0, 864, 1.215564360279586e-08
0, 0, 865, 1.212139988382432e-08
0, 0, 866, 1.215776723739737e-08
0, 0, 867, 1.167470120577718e-08
0, 0, 868, 1.167359986453675e-08
0, 0, 869, 1.186036246991762e-08
0, 0, 870, 1.159485130131088e-08
0, 0, 871, 1.142384586927392e-08
0, 0, 872, 1.218308209871566e-08
0, 0, 873, 1.199162102949458e-08
0, 0, 874, 1.154506978906511e-08
0, 0, 875, 1.158689055813511e-08
0, 0, 876, 1.200884991447992e-08
0, 0, 877, 1.191971055192198e-08
0, 0, 878, 1.163004892390518e-08
0, 0, 879, 1.167701846327418e-08
0, 0, 880, 1.175281827414665e-08
0, 0, 881, 1.17299219226652e-08
0, 0, 882, 1.151812956123877e-08
0, 0, 883, 1.145627415155559e-08
0, 0, 884, 1.130241678026778e-08
0, 0, 885, 1.135160676568603e-08
0, 0, 886, 1.129186433246332e-08
0, 0, 887, 1.165687457671538e-08
0, 0, 888, 1.169607433126885e-08
0, 0, 889, 1.193715615244173e-08
0, 0, 890, 1.146295502962857e-08
0, 0, 891, 1.142694738831551e-08
0, 0, 892, 1.170951424711575e-08
0, 0, 893, 1.180375530651645e-08
0, 0, 894, 1.1870307403683e-08
0, 0, 895, 1.134016525128345e-08
0, 0, 896, 1.142883565563579e-08
0, 0, 897, 1.151308559599329e-08
0, 0, 898, 1.160086693374751e-08
0, 0, 899, 1.156374107580405e-08
0, 0, 900, 1.138868377381641e-08
0, 0, 901, 1.135482730063586e-08
0, 0, 902, 1.14510942950119e-08
0, 0, 903, 1.180641628906187e-08
0, 0, 904, 1.176669250924078e-08
0, 0, 905, 1.125174975413756e-08
0, 0, 906, 1.123971937744273e-08
0, 0, 907, 1.109308556124233e-08
