# TOPAS Version: 3.9
# Parameter File: ./bragg_peak/jobs/job2.txt
# Results for scorer: DoseScorer
# Scored in component: Phantom
# R in 1 bin  of 15 cm
# Phi in 1 bin  of 360 deg
# Z in 1000 bins of 0.04 cm
# DoseToMedium ( Gy ) : Sum   
0, 0, 0, 6.679590214275777e-11
0, 0, 1, 1.012649408771438e-10
0, 0, 2, 6.572888067157834e-11
0, 0, 3, 1.148027228836668e-10
0, 0, 4, 4.003886111547672e-11
0, 0, 5, 3.682502566770829e-11
0, 0, 6, 2.336031368344038e-11
0, 0, 7, 2.301735885223977e-11
0, 0, 8, 1.961805544403727e-11
0, 0, 9, 1.458003509591244e-11
0, 0, 10, 1.57889548657586e-10
0, 0, 11, 3.421204292086699e-11
0, 0, 12, 3.488048738731209e-11
0, 0, 13, 3.067074719198537e-11
0, 0, 14, 3.602213666242804e-11
0, 0, 15, 2.561109310739162e-11
0, 0, 16, 2.163867175719592e-11
0, 0, 17, 5.561586260971474e-11
0, 0, 18, 4.756483054646488e-11
0, 0, 19, 6.422549297946389e-11
0, 0, 20, 3.390603769970468e-11
0, 0, 21, 8.374425458645973e-11
0, 0, 22, 6.187631657050829e-11
0, 0, 23, 7.336237867194839e-11
0, 0, 24, 6.01039704117845e-11
0, 0, 25, 1.974212980593304e-11
0, 0, 26, 4.681968354680599e-11
0, 0, 27, 3.006096066515695e-11
0, 0, 28, 2.883597007008465e-11
0, 0, 29, 1.875757708880155e-11
0, 0, 30, 1.73468062830695e-11
0, 0, 31, 1.630434502686295e-11
0, 0, 32, 5.125768212654869e-11
0, 0, 33, 1.873180950628939e-11
0, 0, 34, 1.665049174925937e-11
0, 0, 35, 1.449558962446362e-11
0, 0, 36, 1.422450351951099e-11
0, 0, 37, 3.967249792569127e-11
0, 0, 38, 4.882357018676231e-11
0, 0, 39, 2.813563965142762e-11
0, 0, 40, 1.447371805740616e-10
0, 0, 41, 5.669016645004632e-11
0, 0, 42, 1.20447679607949e-10
0, 0, 43, 4.889868024382515e-11
0, 0, 44, 3.722972277686587e-11
0, 0, 45, 4.761296565347628e-11
0, 0, 46, 2.350074822243808e-11
0, 0, 47, 6.751951775463283e-11
0, 0, 48, 4.046939172663855e-11
0, 0, 49, 1.872350538500989e-11
0, 0, 50, 2.396165210694079e-11
0, 0, 51, 2.65557072859357e-11
0, 0, 52, 1.781271935508144e-10
0, 0, 53, 1.007472300029733e-10
0, 0, 54, 3.179878582670881e-11
0, 0, 55, 2.381358651937227e-11
0, 0, 56, 4.340299647465073e-11
0, 0, 57, 3.259140179956432e-11
0, 0, 58, 1.945899517907801e-11
0, 0, 59, 2.466028423131483e-11
0, 0, 60, 5.947909526016204e-11
0, 0, 61, 9.328622596616043e-11
0, 0, 62, 3.465145878567277e-11
0, 0, 63, 4.147338375504184e-11
0, 0, 64, 3.054579159056381e-11
0, 0, 65, 2.973877047396378e-11
0, 0, 66, 6.416503439687915e-11
0, 0, 67, 6.864176588239346e-11
0, 0, 68, 1.13289752579071e-10
0, 0, 69, 1.085543044343495e-10
0, 0, 70, 1.127488380436859e-10
0, 0, 71, 5.465426028417042e-11
0, 0, 72, 7.233458970690165e-11
0, 0, 73, 4.192319755236262e-11
0, 0, 74, 5.367923119892204e-11
0, 0, 75, 5.279851555961557e-11
0, 0, 76, 1.281934836061538e-10
0, 0, 77, 8.042577021027952e-11
0, 0, 78, 6.1183190458447e-11
0, 0, 79, 5.418249529598462e-11
0, 0, 80, 8.339849644212194e-11
0, 0, 81, 9.965865632732829e-11
0, 0, 82, 2.597460267705909e-11
0, 0, 83, 3.697422923387705e-11
0, 0, 84, 2.400575224714707e-11
0, 0, 85, 3.448042198983536e-11
0, 0, 86, 8.53664847144664e-11
0, 0, 87, 2.03477540372532e-10
0, 0, 88, 1.784880715449688e-10
0, 0, 89, 1.028907029021475e-10
0, 0, 90, 8.967961789840828e-11
0, 0, 91, 7.294120862866293e-11
0, 0, 92, 1.250976544575622e-10
0, 0, 93, 2.654287033221348e-11
0, 0, 94, 2.305387131196213e-11
0, 0, 95, 2.328435708132126e-11
0, 0, 96, 6.994194806653198e-11
0, 0, 97, 3.528038625133512e-11
0, 0, 98, 2.211112543060167e-11
0, 0, 99, 3.616403357331599e-11
0, 0, 100, 3.360293987508811e-11
0, 0, 101, 3.921187680111515e-11
0, 0, 102, 3.926862654490826e-11
0, 0, 103, 4.818897711422743e-11
0, 0, 104, 6.704944238711263e-11
0, 0, 105, 3.717732718899747e-11
0, 0, 106, 3.500164741376821e-11
0, 0, 107, 1.036257468722823e-10
0, 0, 108, 1.4506296164285e-10
0, 0, 109, 7.342160213141824e-11
0, 0, 110, 5.802896010931313e-11
0, 0, 111, 1.091460463675809e-10
0, 0, 112, 4.054540730935585e-11
0, 0, 113, 4.242543469312743e-11
0, 0, 114, 5.510347039772157e-11
0, 0, 115, 8.624836261850177e-11
0, 0, 116, 4.973938969032865e-11
0, 0, 117, 6.433654997639593e-11
0, 0, 118, 5.03418660924293e-11
0, 0, 119, 8.529268957779834e-11
0, 0, 120, 5.713743020385742e-11
0, 0, 121, 5.961395266318448e-11
0, 0, 122, 8.34692800988357e-11
0, 0, 123, 1.039650518452895e-10
0, 0, 124, 1.984455239023575e-10
0, 0, 125, 1.116266315492886e-10
0, 0, 126, 5.770945873950772e-11
0, 0, 127, 3.933357459184883e-11
0, 0, 128, 2.422247645517128e-11
0, 0, 129, 2.304864459012901e-11
0, 0, 130, 3.268104883935585e-11
0, 0, 131, 8.671380974378806e-11
0, 0, 132, 1.312903258332554e-10
0, 0, 133, 8.201022499987332e-11
0, 0, 134, 4.493686325823809e-11
0, 0, 135, 6.068141822357376e-11
0, 0, 136, 2.07887353165237e-11
0, 0, 137, 1.263451288036066e-10
0, 0, 138, 3.391808708896882e-11
0, 0, 139, 7.562465237365146e-11
0, 0, 140, 3.03515823585343e-11
0, 0, 141, 6.799570628768237e-11
0, 0, 142, 6.545677888603052e-11
0, 0, 143, 2.697262725670502e-11
0, 0, 144, 5.184118759271605e-11
0, 0, 145, 5.398255800703744e-11
0, 0, 146, 2.167926081708682e-11
0, 0, 147, 1.007100028371788e-10
0, 0, 148, 3.192204833801782e-11
0, 0, 149, 3.201735751523493e-11
0, 0, 150, 2.840440903317809e-11
0, 0, 151, 2.315849075007481e-11
0, 0, 152, 3.287397090656619e-11
0, 0, 153, 3.811638851769494e-11
0, 0, 154, 7.270384294599808e-11
0, 0, 155, 4.860039107268399e-11
0, 0, 156, 1.339027638769252e-10
0, 0, 157, 9.678370604948583e-11
0, 0, 158, 1.021971188230886e-10
0, 0, 159, 7.561632570096677e-11
0, 0, 160, 6.940253233223004e-11
0, 0, 161, 1.027982490797719e-10
0, 0, 162, 7.752373049063621e-11
0, 0, 163, 1.588079667769193e-10
0, 0, 164, 1.287605577715567e-10
0, 0, 165, 1.265165333608209e-10
0, 0, 166, 1.71536798654337e-10
0, 0, 167, 9.948510765189766e-11
0, 0, 168, 1.028205576236729e-10
0, 0, 169, 8.750762614528895e-11
0, 0, 170, 9.218773661112678e-11
0, 0, 171, 5.850751827463085e-11
0, 0, 172, 8.020773628603095e-11
0, 0, 173, 1.076643774133856e-10
0, 0, 174, 1.755826872784638e-10
0, 0, 175, 7.755685677013346e-11
0, 0, 176, 1.291466239505823e-10
0, 0, 177, 1.119960790774144e-10
0, 0, 178, 5.566484773122937e-11
0, 0, 179, 1.397673088376905e-10
0, 0, 180, 1.277929428944446e-10
0, 0, 181, 8.214153662811086e-11
0, 0, 182, 6.372386646136263e-11
0, 0, 183, 5.04683204949341e-11
0, 0, 184, 3.877785592631966e-11
0, 0, 185, 4.00668803690607e-11
0, 0, 186, 4.891352947677952e-11
0, 0, 187, 6.539432190200145e-11
0, 0, 188, 9.748987728208647e-11
0, 0, 189, 1.184532194553611e-10
0, 0, 190, 1.493821177867005e-10
0, 0, 191, 1.01693924114965e-10
0, 0, 192, 1.269744309695398e-10
0, 0, 193, 9.407930684490751e-11
0, 0, 194, 6.719488854223243e-11
0, 0, 195, 1.285914430493307e-10
0, 0, 196, 5.89606349854499e-11
0, 0, 197, 9.621212854193928e-11
0, 0, 198, 3.847157661884815e-11
0, 0, 199, 3.510719492894054e-11
0, 0, 200, 4.200361933270891e-11
0, 0, 201, 7.010950153762963e-11
0, 0, 202, 7.247091815543172e-11
0, 0, 203, 9.783758525561126e-11
0, 0, 204, 6.411055020194567e-11
0, 0, 205, 1.270239607942258e-10
0, 0, 206, 1.088299797502579e-10
0, 0, 207, 1.190589155042332e-10
0, 0, 208, 1.289031936746454e-10
0, 0, 209, 8.902854842229857e-11
0, 0, 210, 4.577576512287962e-11
0, 0, 211, 4.940203454650849e-11
0, 0, 212, 1.113082750969774e-10
0, 0, 213, 8.858389022314839e-11
0, 0, 214, 2.89087833532653e-11
0, 0, 215, 5.048988657718745e-11
0, 0, 216, 5.393306634626782e-11
0, 0, 217, 1.157462875545079e-10
0, 0, 218, 1.121509621282435e-10
0, 0, 219, 8.318899041848127e-11
0, 0, 220, 1.377387648382467e-10
0, 0, 221, 1.056615420158558e-10
0, 0, 222, 9.964552100116819e-11
0, 0, 223, 1.026177615104373e-10
0, 0, 224, 7.476425728514258e-11
0, 0, 225, 1.755863648922329e-10
0, 0, 226, 7.076680907935895e-11
0, 0, 227, 6.524521894979429e-11
0, 0, 228, 8.111288724022003e-11
0, 0, 229, 9.844072085263278e-11
0, 0, 230, 7.089603210053141e-11
0, 0, 231, 8.923173311359278e-11
0, 0, 232, 1.322148363014364e-10
0, 0, 233, 9.111634363678789e-11
0, 0, 234, 9.051779464863685e-11
0, 0, 235, 8.935546746968726e-11
0, 0, 236, 5.889524284929948e-11
0, 0, 237, 4.236125686341019e-11
0, 0, 238, 7.748919561567646e-11
0, 0, 239, 7.186137795933689e-11
0, 0, 240, 9.225433611481648e-11
0, 0, 241, 6.98116356390166e-11
0, 0, 242, 6.736583513244909e-11
0, 0, 243, 5.590250137799124e-11
0, 0, 244, 1.479103090007428e-10
0, 0, 245, 6.301151961318752e-11
0, 0, 246, 1.347639222437635e-10
0, 0, 247, 8.664261669233397e-11
0, 0, 248, 6.34297198098821e-11
0, 0, 249, 7.948688235392964e-11
0, 0, 250, 9.75254529911318e-11
0, 0, 251, 1.573580293845467e-10
0, 0, 252, 1.029912891081786e-10
0, 0, 253, 1.295018536850989e-10
0, 0, 254, 1.351724981946134e-10
0, 0, 255, 9.53941786674406e-11
0, 0, 256, 7.286097419845206e-11
0, 0, 257, 4.763839323018715e-11
0, 0, 258, 5.382242221352307e-11
0, 0, 259, 5.860097129772868e-11
0, 0, 260, 5.442189060511637e-11
0, 0, 261, 2.30334445960878e-10
0, 0, 262, 8.48260767183362e-11
0, 0, 263, 2.468615312167799e-10
0, 0, 264, 2.885159056109643e-10
0, 0, 265, 3.816242044596407e-10
0, 0, 266, 5.564377847377955e-10
0, 0, 267, 7.011490277264443e-10
0, 0, 268, 7.368936572049734e-10
0, 0, 269, 1.061931209633826e-09
0, 0, 270, 1.369987234767223e-09
0, 0, 271, 1.709859365206512e-09
0, 0, 272, 2.35764741063349e-09
0, 0, 273, 2.74551248402588e-09
0, 0, 274, 3.599037068369171e-09
0, 0, 275, 4.648406992657783e-09
0, 0, 276, 5.656026313971552e-09
0, 0, 277, 7.228114551338649e-09
0, 0, 278, 8.946518192942676e-09
0, 0, 279, 1.099933388815089e-08
0, 0, 280, 1.295927365418947e-08
0, 0, 281, 1.501221724709012e-08
0, 0, 282, 1.78219892177367e-08
0, 0, 283, 2.01379108943911e-08
0, 0, 284, 2.305000279534397e-08
0, 0, 285, 2.494122242069352e-08
0, 0, 286, 2.747642824374452e-08
0, 0, 287, 2.999113846158252e-08
0, 0, 288, 3.298883655133977e-08
0, 0, 289, 3.563724249033839e-08
0, 0, 290, 3.837377704485334e-08
0, 0, 291, 3.961516270578613e-08
0, 0, 292, 4.094820127420462e-08
0, 0, 293, 4.141877596453014e-08
0, 0, 294, 4.219478100253582e-08
0, 0, 295, 4.270599163191946e-08
0, 0, 296, 4.363248606864545e-08
0, 0, 297, 4.372482464987115e-08
0, 0, 298, 4.395595709638656e-08
0, 0, 299, 4.386357943531038e-08
0, 0, 300, 4.280703080894455e-08
0, 0, 301, 4.246779283789692e-08
0, 0, 302, 4.135616649136864e-08
0, 0, 303, 4.042005130600046e-08
0, 0, 304, 3.963034700404933e-08
0, 0, 305, 3.851023677725607e-08
0, 0, 306, 3.796990100113362e-08
0, 0, 307, 3.723694064206029e-08
0, 0, 308, 3.644647250666821e-08
0, 0, 309, 3.64766741256517e-08
0, 0, 310, 3.525498470935418e-08
0, 0, 311, 3.398517023356362e-08
0, 0, 312, 3.320519326166504e-08
0, 0, 313, 3.298510264926335e-08
0, 0, 314, 3.19452482244742e-08
0, 0, 315, 3.178841723183723e-08
0, 0, 316, 3.104846513224402e-08
0, 0, 317, 3.056297614989489e-08
0, 0, 318, 2.969290946452929e-08
0, 0, 319, 2.904331708464269e-08
0, 0, 320, 2.88798123193601e-08
0, 0, 321, 2.797421672084965e-08
0, 0, 322, 2.74911968745073e-08
0, 0, 323, 2.77249352365061e-08
0, 0, 324, 2.769255935675119e-08
0, 0, 325, 2.738584292671931e-08
0, 0, 326, 2.676091526154778e-08
0, 0, 327, 2.674596188967371e-08
0, 0, 328, 2.654880582042551e-08
0, 0, 329, 2.628106621216375e-08
0, 0, 330, 2.570225454689989e-08
0, 0, 331, 2.581267999346437e-08
0, 0, 332, 2.554078548655525e-08
0, 0, 333, 2.533638010504546e-08
0, 0, 334, 2.483755956461664e-08
0, 0, 335, 2.45910154461626e-08
0, 0, 336, 2.425924527926782e-08
0, 0, 337, 2.390319053802159e-08
0, 0, 338, 2.380667041279594e-08
0, 0, 339, 2.343402449866971e-08
0, 0, 340, 2.329749371199341e-08
0, 0, 341, 2.345493577138313e-08
0, 0, 342, 2.327224990494869e-08
0, 0, 343, 2.292990330943212e-08
0, 0, 344, 2.279825928042101e-08
0, 0, 345, 2.238576080060284e-08
0, 0, 346, 2.23428564538608e-08
0, 0, 347, 2.237537266580603e-08
0, 0, 348, 2.244418872976439e-08
0, 0, 349, 2.219615602427893e-08
0, 0, 350, 2.191058179334959e-08
0, 0, 351, 2.165171153478695e-08
0, 0, 352, 2.164565948703512e-08
0, 0, 353, 2.166165735673076e-08
0, 0, 354, 2.111943508964487e-08
0, 0, 355, 2.098381735038402e-08
0, 0, 356, 2.126056308782154e-08
0, 0, 357, 2.112324004599486e-08
0, 0, 358, 2.076875738055151e-08
0, 0, 359, 2.06455172957476e-08
0, 0, 360, 2.056254899684973e-08
0, 0, 361, 2.055485737173512e-08
0, 0, 362, 2.05035632916406e-08
0, 0, 363, 2.023580414345361e-08
0, 0, 364, 2.020069267416602e-08
0, 0, 365, 2.032458112921631e-08
0, 0, 366, 2.02225400869338e-08
0, 0, 367, 1.996300191819955e-08
0, 0, 368, 1.949477557161572e-08
0, 0, 369, 1.981225850045121e-08
0, 0, 370, 1.968277807407048e-08
0, 0, 371, 1.9544778240288e-08
0, 0, 372, 1.959147333252531e-08
0, 0, 373, 1.922234815765478e-08
0, 0, 374, 1.925085690857031e-08
0, 0, 375, 1.898666468491683e-08
0, 0, 376, 1.904403035268842e-08
0, 0, 377, 1.90739068983703e-08
0, 0, 378, 1.914108516132274e-08
0, 0, 379, 1.917597636236223e-08
0, 0, 380, 1.933933013731348e-08
0, 0, 381, 1.881812750070821e-08
0, 0, 382, 1.89076789780529e-08
0, 0, 383, 1.893122458795915e-08
0, 0, 384, 1.867865151439219e-08
0, 0, 385, 1.881756084287645e-08
0, 0, 386, 1.878798450150043e-08
0, 0, 387, 1.837574714613766e-08
0, 0, 388, 1.869287125089159e-08
0, 0, 389, 1.846182406950447e-08
0, 0, 390, 1.826516715652815e-08
0, 0, 391, 1.820803596785936e-08
0, 0, 392, 1.83917361340491e-08
0, 0, 393, 1.848059660858326e-08
0, 0, 394, 1.778440861244235e-08
0, 0, 395, 1.791153358965403e-08
0, 0, 396, 1.792049353355196e-08
0, 0, 397, 1.770093938091577e-08
0, 0, 398, 1.787231873606743e-08
0, 0, 399, 1.788675341174439e-08
0, 0, 400, 1.788581194261951e-08
0, 0, 401, 1.807259941699613e-08
0, 0, 402, 1.774683866528903e-08
0, 0, 403, 1.77435595105635e-08
0, 0, 404, 1.781545044821087e-08
0, 0, 405, 1.756553480447565e-08
0, 0, 406, 1.752140299515759e-08
0, 0, 407, 1.752396272536316e-08
0, 0, 408, 1.733807231119044e-08
0, 0, 409, 1.7324815360098e-08
0, 0, 410, 1.74005894137963e-08
0, 0, 411, 1.727651977034839e-08
0, 0, 412, 1.740908395220231e-08
0, 0, 413, 1.746112232581254e-08
0, 0, 414, 1.71179479480088e-08
0, 0, 415, 1.710539798693844e-08
0, 0, 416, 1.691018347571571e-08
0, 0, 417, 1.698467855248964e-08
0, 0, 418, 1.679537220411476e-08
0, 0, 419, 1.680810690629642e-08
0, 0, 420, 1.686413853008162e-08
0, 0, 421, 1.685957151664752e-08
0, 0, 422, 1.707786090321406e-08
0, 0, 423, 1.69308993491768e-08
0, 0, 424, 1.654258596772706e-08
0, 0, 425, 1.656934500715579e-08
0, 0, 426, 1.66082401165113e-08
0, 0, 427, 1.66276539204091e-08
0, 0, 428, 1.645344482881228e-08
0, 0, 429, 1.639357094518346e-08
0, 0, 430, 1.634212587475758e-08
0, 0, 431, 1.64234190691559e-08
0, 0, 432, 1.643559954800367e-08
0, 0, 433, 1.6336635155767e-08
0, 0, 434, 1.645351943579954e-08
0, 0, 435, 1.610304956045638e-08
0, 0, 436, 1.607689270599622e-08
0, 0, 437, 1.611359401465506e-08
0, 0, 438, 1.622444401050416e-08
0, 0, 439, 1.596865573105788e-08
0, 0, 440, 1.611985389615711e-08
0, 0, 441, 1.641895686077532e-08
0, 0, 442, 1.619066480884612e-08
0, 0, 443, 1.604513499842142e-08
0, 0, 444, 1.585006614845952e-08
0, 0, 445, 1.597418197718525e-08
0, 0, 446, 1.587423703597324e-08
0, 0, 447, 1.566126428542702e-08
0, 0, 448, 1.579494934844661e-08
0, 0, 449, 1.592712628450954e-08
0, 0, 450, 1.588664488849645e-08
0, 0, 451, 1.579605957147123e-08
0, 0, 452, 1.572065855270921e-08
0, 0, 453, 1.587430986660365e-08
0, 0, 454, 1.580985475868601e-08
0, 0, 455, 1.604453281345286e-08
0, 0, 456, 1.585488362820797e-08
0, 0, 457, 1.562248996833659e-08
0, 0, 458, 1.574706232077006e-08
0, 0, 459, 1.523241799361585e-08
0, 0, 460, 1.511657821140489e-08
0, 0, 461, 1.527394566380735e-08
0, 0, 462, 1.579586950128942e-08
0, 0, 463, 1.549312500515043e-08
0, 0, 464, 1.603971533370441e-08
0, 0, 465, 1.560973927894338e-08
0, 0, 466, 1.540009897382788e-08
0, 0, 467, 1.545754457765725e-08
0, 0, 468, 1.555836171007741e-08
0, 0, 469, 1.536293225967711e-08
0, 0, 470, 1.552127315562757e-08
0, 0, 471, 1.526401760543195e-08
0, 0, 472, 1.541425476148106e-08
0, 0, 473, 1.527109816379379e-08
0, 0, 474, 1.503912372413652e-08
0, 0, 475, 1.52352424009905e-08
0, 0, 476, 1.528971615982755e-08
0, 0, 477, 1.505008029312194e-08
0, 0, 478, 1.495751611457763e-08
0, 0, 479, 1.509363478646719e-08
0, 0, 480, 1.487424583501706e-08
0, 0, 481, 1.500498392204008e-08
0, 0, 482, 1.517226699832008e-08
0, 0, 483, 1.491920897933596e-08
0, 0, 484, 1.497575929931827e-08
0, 0, 485, 1.497814494655358e-08
0, 0, 486, 1.489191348014174e-08
0, 0, 487, 1.499492086054488e-08
0, 0, 488, 1.488252987513761e-08
0, 0, 489, 1.507469882255918e-08
0, 0, 490, 1.510379377123172e-08
0, 0, 491, 1.530260718141108e-08
0, 0, 492, 1.510871960874738e-08
0, 0, 493, 1.51642112200534e-08
0, 0, 494, 1.472851796080477e-08
0, 0, 495, 1.484442258004037e-08
0, 0, 496, 1.472871691277078e-08
0, 0, 497, 1.474137345525151e-08
0, 0, 498, 1.495980583854362e-08
0, 0, 499, 1.490314360808043e-08
0, 0, 500, 1.470868582487128e-08
0, 0, 501, 1.539858018873019e-08
0, 0, 502, 1.499886437272835e-08
0, 0, 503, 1.482125266960566e-08
0, 0, 504, 1.486240908121772e-08
0, 0, 505, 1.497576285203195e-08
0, 0, 506, 1.468400601112307e-08
0, 0, 507, 1.4997883823753e-08
0, 0, 508, 1.462748056013652e-08
0, 0, 509, 1.485832967773604e-08
0, 0, 510, 1.485925960054146e-08
0, 0, 511, 1.494051282691089e-08
0, 0, 512, 1.462832166509997e-08
0, 0, 513, 1.461036447381048e-08
0, 0, 514, 1.474725852546044e-08
0, 0, 515, 1.471815380682528e-08
0, 0, 516, 1.486404066497471e-08
0, 0, 517, 1.497340029743555e-08
0, 0, 518, 1.475426891772713e-08
0, 0, 519, 1.432549723290322e-08
0, 0, 520, 1.421654083344492e-08
0, 0, 521, 1.437372176837926e-08
0, 0, 522, 1.450611186726292e-08
0, 0, 523, 1.481558165039587e-08
0, 0, 524, 1.44780099020636e-08
0, 0, 525, 1.444656572147096e-08
0, 0, 526, 1.447285491451566e-08
0, 0, 527, 1.430015572623233e-08
0, 0, 528, 1.417691741778526e-08
0, 0, 529, 1.420992745693184e-08
0, 0, 530, 1.41897054106721e-08
0, 0, 531, 1.411962369246567e-08
0, 0, 532, 1.41869325176458e-08
0, 0, 533, 1.440215946502121e-08
0, 0, 534, 1.442804720142021e-08
0, 0, 535, 1.45340006696415e-08
0, 0, 536, 1.435640051283826e-08
0, 0, 537, 1.445257069576655e-08
0, 0, 538, 1.407160166166932e-08
0, 0, 539, 1.411922134764154e-08
0, 0, 540, 1.410038930060864e-08
0, 0, 541, 1.41119516072763e-08
0, 0, 542, 1.419806228142306e-08
0, 0, 543, 1.441276253899559e-08
0, 0, 544, 1.425903572993548e-08
0, 0, 545, 1.400218518909924e-08
0, 0, 546, 1.427056695035844e-08
0, 0, 547, 1.437537289206148e-08
0, 0, 548, 1.481180333939847e-08
0, 0, 549, 1.425392603948694e-08
0, 0, 550, 1.416494654904454e-08
0, 0, 551, 1.397729043617346e-08
0, 0, 552, 1.415403971805063e-08
0, 0, 553, 1.409572902844047e-08
0, 0, 554, 1.374522540231737e-08
0, 0, 555, 1.411286554287017e-08
0, 0, 556, 1.419104211919375e-08
0, 0, 557, 1.428092755162425e-08
0, 0, 558, 1.397325188889909e-08
0, 0, 559, 1.39526399323131e-08
0, 0, 560, 1.402228289038021e-08
0, 0, 561, 1.410737748841484e-08
0, 0, 562, 1.410349526054233e-08
0, 0, 563, 1.410513572608352e-08
0, 0, 564, 1.418104300654477e-08
0, 0, 565, 1.402061400312959e-08
0, 0, 566, 1.387179082712464e-08
0, 0, 567, 1.386138581693785e-08
0, 0, 568, 1.40859377495417e-08
0, 0, 569, 1.392329629368305e-08
0, 0, 570, 1.395134230364192e-08
0, 0, 571, 1.389400061668766e-08
0, 0, 572, 1.380978886800222e-08
0, 0, 573, 1.37753026763221e-08
0, 0, 574, 1.368800273127135e-08
0, 0, 575, 1.364015922433737e-08
0, 0, 576, 1.366676638525632e-08
0, 0, 577, 1.345530176166676e-08
0, 0, 578, 1.36566526975912e-08
0, 0, 579, 1.346243028166327e-08
0, 0, 580, 1.356172329991523e-08
0, 0, 581, 1.346488254228007e-08
0, 0, 582, 1.354188405855439e-08
0, 0, 583, 1.35598057227071e-08
0, 0, 584, 1.361776202912779e-08
0, 0, 585, 1.32337696356899e-08
0, 0, 586, 1.361722645754071e-08
0, 0, 587, 1.350320744109013e-08
0, 0, 588, 1.371676106032282e-08
0, 0, 589, 1.325176501865144e-08
0, 0, 590, 1.336598387524646e-08
0, 0, 591, 1.313885888976074e-08
0, 0, 592, 1.330168775126594e-08
0, 0, 593, 1.329069121425164e-08
0, 0, 594, 1.33130608759302e-08
0, 0, 595, 1.343618549753955e-08
0, 0, 596, 1.335021782011836e-08
0, 0, 597, 1.324483633879936e-08
0, 0, 598, 1.331913335178569e-08
0, 0, 599, 1.350486300566445e-08
0, 0, 600, 1.339073651962508e-08
0, 0, 601, 1.362576806940297e-08
0, 0, 602, 1.371305113906374e-08
0, 0, 603, 1.32778765760122e-08
0, 0, 604, 1.32572637312478e-08
0, 0, 605, 1.344392153157514e-08
0, 0, 606, 1.352023559775262e-08
0, 0, 607, 1.330124099752084e-08
0, 0, 608, 1.367275359598352e-08
0, 0, 609, 1.335795207779711e-08
0, 0, 610, 1.334468979763415e-08
0, 0, 611, 1.353589862418403e-08
0, 0, 612, 1.344515077050801e-08
0, 0, 613, 1.35185080907263e-08
0, 0, 614, 1.324840503968971e-08
0, 0, 615, 1.33611166575065e-08
0, 0, 616, 1.321246489993655e-08
0, 0, 617, 1.312205633041685e-08
0, 0, 618, 1.299659402320685e-08
0, 0, 619, 1.321539055965104e-08
0, 0, 620, 1.349019829177678e-08
0, 0, 621, 1.352211320693186e-08
0, 0, 622, 1.33666127055676e-08
0, 0, 623, 1.337732946637971e-08
0, 0, 624, 1.351445355624037e-08
0, 0, 625, 1.392801518562692e-08
0, 0, 626, 1.350350498086073e-08
0, 0, 627, 1.313939623770466e-08
0, 0, 628, 1.339807553790706e-08
0, 0, 629, 1.310963160250367e-08
0, 0, 630, 1.32857165269229e-08
0, 0, 631, 1.310817943078746e-08
0, 0, 632, 1.319120812581787e-08
0, 0, 633, 1.300366125889241e-08
0, 0, 634, 1.301582575052862e-08
0, 0, 635, 1.303895746929129e-08
0, 0, 636, 1.326565435277871e-08
0, 0, 637, 1.343415512167212e-08
0, 0, 638, 1.32519977213974e-08
0, 0, 639, 1.331827892414594e-08
0, 0, 640, 1.334304311484402e-08
0, 0, 641, 1.349428302432898e-08
0, 0, 642, 1.313240449718478e-08
0, 0, 643, 1.329691912133057e-08
0, 0, 644, 1.304623786779757e-08
0, 0, 645, 1.294661444717349e-08
0, 0, 646, 1.299121432651873e-08
0, 0, 647, 1.303689689535759e-08
0, 0, 648, 1.310680985966428e-08
0, 0, 649, 1.328805598888039e-08
0, 0, 650, 1.350394818189216e-08
0, 0, 651, 1.279451566915668e-08
0, 0, 652, 1.299343654892482e-08
0, 0, 653, 1.324842191507969e-08
0, 0, 654, 1.2919559644331e-08
0, 0, 655, 1.289491002864906e-08
0, 0, 656, 1.288191953108253e-08
0, 0, 657, 1.273757099795603e-08
0, 0, 658, 1.277442152058939e-08
0, 0, 659, 1.288412665445549e-08
0, 0, 660, 1.311570674289442e-08
0, 0, 661, 1.282457962048511e-08
0, 0, 662, 1.287825046603075e-08
0, 0, 663, 1.284516137900482e-08
0, 0, 664, 1.311557618066672e-08
0, 0, 665, 1.297496865504399e-08
0, 0, 666, 1.303001440078333e-08
0, 0, 667, 1.29947883564796e-08
0, 0, 668, 1.307889530011153e-08
0, 0, 669, 1.343468269965342e-08
0, 0, 670, 1.343051359015135e-08
0, 0, 671, 1.368593061101819e-08
0, 0, 672, 1.325485765590884e-08
0, 0, 673, 1.298775309521716e-08
0, 0, 674, 1.277637107222063e-08
0, 0, 675, 1.300061569509126e-08
0, 0, 676, 1.271213356801582e-08
0, 0, 677, 1.304469510188255e-08
0, 0, 678, 1.271920258005821e-08
0, 0, 679, 1.279034300694093e-08
0, 0, 680, 1.296188489874339e-08
0, 0, 681, 1.253393566713612e-08
0, 0, 682, 1.269948501914087e-08
0, 0, 683, 1.278612948851787e-08
0, 0, 684, 1.289467110865417e-08
0, 0, 685, 1.275815719736784e-08
0, 0, 686, 1.267227389689651e-08
0, 0, 687, 1.32297213184529e-08
0, 0, 688, 1.284309458782218e-08
0, 0, 689, 1.302825403115548e-08
0, 0, 690, 1.317413556023439e-08
0, 0, 691, 1.264009785728604e-08
0, 0, 692, 1.257708870383567e-08
0, 0, 693, 1.255758874663115e-08
0, 0, 694, 1.251611347896642e-08
0, 0, 695, 1.266761184837151e-08
0, 0, 696, 1.265745908085592e-08
0, 0, 697, 1.250179249012717e-08
0, 0, 698, 1.27696928586829e-08
0, 0, 699, 1.289570850104838e-08
0, 0, 700, 1.267654603509527e-08
0, 0, 701, 1.252059966816432e-08
0, 0, 702, 1.275966710068133e-08
0, 0, 703, 1.305328822809315e-08
0, 0, 704, 1.263558502273554e-08
0, 0, 705, 1.255065562588698e-08
0, 0, 706, 1.235677959954273e-08
0, 0, 707, 1.296526619398719e-08
0, 0, 708, 1.298382912295892e-08
0, 0, 709, 1.280523420632562e-08
0, 0, 710, 1.276873362598963e-08
0, 0, 711, 1.260879045617003e-08
0, 0, 712, 1.252130488182956e-08
0, 0, 713, 1.249089010002535e-08
0, 0, 714, 1.248109615659132e-08
0, 0, 715, 1.248032521772302e-08
0, 0, 716, 1.261983673117584e-08
0, 0, 717, 1.274432914755153e-08
0, 0, 718, 1.281428563260079e-08
0, 0, 719, 1.301980745438414e-08
0, 0, 720, 1.276457339827175e-08
0, 0, 721, 1.249804082448236e-08
0, 0, 722, 1.27258159565713e-08
0, 0, 723, 1.257096116091816e-08
0, 0, 724, 1.227819446114609e-08
0, 0, 725, 1.269537097670081e-08
0, 0, 726, 1.249613834630736e-08
0, 0, 727, 1.254433179553871e-08
0, 0, 728, 1.232914836890586e-08
0, 0, 729, 1.254574755193971e-08
0, 0, 730, 1.241976654853261e-08
0, 0, 731, 1.231056057093838e-08
0, 0, 732, 1.250588965717725e-08
0, 0, 733, 1.229281298975593e-08
0, 0, 734, 1.227714641061084e-08
0, 0, 735, 1.22747776387655e-08
0, 0, 736, 1.272222860393413e-08
0, 0, 737, 1.300823626593228e-08
0, 0, 738, 1.273908800669687e-08
0, 0, 739, 1.280383177260092e-08
0, 0, 740, 1.288371009877665e-08
0, 0, 741, 1.276078087641963e-08
0, 0, 742, 1.283028883136694e-08
0, 0, 743, 1.253025239122962e-08
0, 0, 744, 1.229677337732937e-08
0, 0, 745, 1.297099494479426e-08
0, 0, 746, 1.282993888906958e-08
0, 0, 747, 1.256533810334304e-08
0, 0, 748, 1.251256787071497e-08
0, 0, 749, 1.263011206731335e-08
0, 0, 750, 1.261504145588788e-08
0, 0, 751, 1.249188308349858e-08
0, 0, 752, 1.221567291764813e-08
0, 0, 753, 1.238337610232065e-08
0, 0, 754, 1.2297811657902e-08
0, 0, 755, 1.230995838596982e-08
0, 0, 756, 1.217984735291111e-08
0, 0, 757, 1.246457959069858e-08
0, 0, 758, 1.247964043216143e-08
0, 0, 759, 1.244832148472597e-08
0, 0, 760, 1.229827262250183e-08
0, 0, 761, 1.240293734383613e-08
0, 0, 762, 1.223441525866065e-08
0, 0, 763, 1.224440016045492e-08
0, 0, 764, 1.218550327308776e-08
0, 0, 765, 1.252260073414391e-08
0, 0, 766, 1.221735512757505e-08
0, 0, 767, 1.207828503879682e-08
0, 0, 768, 1.234309721098725e-08
0, 0, 769, 1.246119119002742e-08
0, 0, 770, 1.212584344045808e-08
0, 0, 771, 1.232647850457624e-08
0, 0, 772, 1.211580613613705e-08
0, 0, 773, 1.204213440075819e-08
0, 0, 774, 1.204713129254742e-08
0, 0, 775, 1.219576972744107e-08
0, 0, 776, 1.251435310933857e-08
0, 0, 777, 1.262945570346119e-08
0, 0, 778, 1.225799106663317e-08
0, 0, 779, 1.208328281876447e-08
0, 0, 780, 1.237996460901059e-08
0, 0, 781, 1.233255808585909e-08
0, 0, 782, 1.208607169900233e-08
0, 0, 783, 1.208000011132526e-08
0, 0, 784, 1.197455024026794e-08
0, 0, 785, 1.206327926439599e-08
0, 0, 786, 1.206368072104169e-08
0, 0, 787, 1.226252432928732e-08
0, 0, 788, 1.211467814954403e-08
0, 0, 789, 1.214709577368467e-08
0, 0, 790, 1.196544285875234e-08
0, 0, 791, 1.182823616829864e-08
0, 0, 792, 1.202814203793423e-08
0, 0, 793, 1.18941301252562e-08
0, 0, 794, 1.182432463053829e-08
0, 0, 795, 1.203636834645749e-08
0, 0, 796, 1.231746260543787e-08
0, 0, 797, 1.223915635506501e-08
0, 0, 798, 1.193753540462694e-08
0, 0, 799, 1.212451650189905e-08
0, 0, 800, 1.217828415889244e-08
0, 0, 801, 1.236370206214588e-08
0, 0, 802, 1.225402890270288e-08
0, 0, 803, 1.213853284554034e-08
0, 0, 804, 1.212765443625585e-08
0, 0, 805, 1.227844581563886e-08
0, 0, 806, 1.225224188772245e-08
0, 0, 807, 1.232111568327809e-08
0, 0, 808, 1.246051350989319e-08
0, 0, 809, 1.233787472187942e-08
0, 0, 810, 1.237355906624771e-08
0, 0, 811, 1.225510448676914e-08
0, 0, 812, 1.250512493555789e-08
0, 0, 813, 1.22179120154442e-08
0, 0, 814, 1.201529364891485e-08
0, 0, 815, 1.202541799472101e-08
0, 0, 816, 1.199094956660929e-08
0, 0, 817, 1.182626618856375e-08
0, 0, 818, 1.198957733095085e-08
0, 0, 819, 1.243886060819932e-08
0, 0, 820, 1.247274195037562e-08
0, 0, 821, 1.211949030022197e-08
0, 0, 822, 1.236423408101928e-08
0, 0, 823, 1.222946099943556e-08
0, 0, 824, 1.211974520742842e-08
0, 0, 825, 1.220400847046221e-08
0, 0, 826, 1.22969776583659e-08
0, 0, 827, 1.194040066820889e-08
0, 0, 828, 1.197934551555591e-08
0, 0, 829, 1.164563290245724e-08
0, 0, 830, 1.194816867666759e-08
0, 0, 831, 1.189624398989508e-08
0, 0, 832, 1.188752385417047e-08
0, 0, 833, 1.214712952446462e-08
0, 0, 834, 1.217344003379139e-08
0, 0, 835, 1.260838011774013e-08
0, 0, 836, 1.232887569813101e-08
0, 0, 837, 1.223417633866575e-08
0, 0, 838, 1.197799104346586e-08
0, 0, 839, 1.182984199488146e-08
0, 0, 840, 1.275839256464906e-08
0, 0, 841, 1.20621299615209e-08
0, 0, 842, 1.187249498713072e-08
0, 0, 843, 1.199800081508329e-08
0, 0, 844, 1.197120891305303e-08
0, 0, 845, 1.196213084142528e-08
0, 0, 846, 1.193507870311805e-08
0, 0, 847, 1.190024967456793e-08
0, 0, 848, 1.191414611412256e-08
0, 0, 849, 1.198895116516496e-08
0, 0, 850, 1.185446851792449e-08
0, 0, 851, 1.181477493616967e-08
0, 0, 852, 1.187192566476369e-08
0, 0, 853, 1.206115918250816e-08
0, 0, 854, 1.203531230231647e-08
0, 0, 855, 1.188775922145169e-08
0, 0, 856, 1.212841738151837e-08
0, 0, 857, 1.211063160866388e-08
0, 0, 858, 1.177976827193561e-08
0, 0, 859, 1.173410790755725e-08
0, 0, 860, 1.166318952527945e-08
0, 0, 861, 1.180243813792003e-08
0, 0, 862, 1.209902844578892e-08
0, 0, 863, 1.191377574372154e-08
0, 0, 864, 1.157135276486088e-08
0, 0, 865, 1.150458484033834e-08
0, 0, 866, 1.202393562493853e-08
0, 0, 867, 1.177002140195782e-08
0, 0, 868, 1.172919805725314e-08
0, 0, 869, 1.19372538520679e-08
0, 0, 870, 1.184475184601297e-08
0, 0, 871, 1.173953290134477e-08
0, 0, 872, 1.158525009259392e-08
0, 0, 873, 1.174987751539902e-08
0, 0, 874, 1.143311312290507e-08
0, 0, 875, 1.186153308907478e-08
0, 0, 876, 1.168043972654687e-08
0, 0, 877, 1.147312467253414e-08
0, 0, 878, 1.148531669770136e-08
0, 0, 879, 1.150702644281409e-08
0, 0, 880, 1.127661963806759e-08
0, 0, 881, 1.149796791111157e-08
0, 0, 882, 1.156571105553894e-08
0, 0, 883, 1.135116711736828e-08
0, 0, 884, 1.138805316713842e-08
0, 0, 885, 1.155771034433428e-08
0, 0, 886, 1.117687631335684e-08
0, 0, 887, 1.171670049870954e-08
0, 0, 888, 1.148099659786794e-08
0, 0, 889, 1.143537620151847e-08
0, 0, 890, 1.15666694000538e-08
0, 0, 891, 1.145639494382067e-08
0, 0, 892, 1.173442765178834e-08
0, 0, 893, 1.154050277563101e-08
0, 0, 894, 1.161563556451028e-08
0, 0, 895, 1.156316287165282e-08
0, 0, 896, 1.146919270667013e-08
0, 0, 897, 1.200678312329728e-08
0, 0, 898, 1.18493881373638e-08
0, 0, 899, 1.148756290092479e-08
0, 0, 900, 1.156019191483892e-08
0, 0, 901, 1.139479177680869e-08
0, 0, 902, 1.16675424877144e-08
0, 0, 903, 1.18006013849481e-08
0, 0, 904, 1.143837824457705e-08
0, 0, 905, 1.149038109105049e-08
0, 0, 906, 1.179409903073747e-08
0, 0, 907, 1.205857635966368e-08
