# TOPAS Version: 3.9
# Parameter File: ./bragg_peak/jobs/job7.txt
# Results for scorer: DoseScorer
# Scored in component: Phantom
# R in 1 bin  of 15 cm
# Phi in 1 bin  of 360 deg
# Z in 1000 bins of 0.04 cm
# DoseToMedium ( Gy ) : Sum   
0, 0, 0, 6.302176142058968e-11
0, 0, 1, 7.025501274487977e-12
0, 0, 2, 6.38498975913393e-12
0, 0, 3, 5.694904183645155e-12
0, 0, 4, 2.095347159669636e-11
0, 0, 5, 2.577958159444282e-11
0, 0, 6, 7.847599653443282e-11
0, 0, 7, 9.316034055295574e-11
0, 0, 8, 3.08361287892911e-11
0, 0, 9, 5.730936558645539e-11
0, 0, 10, 1.262445183114469e-11
0, 0, 11, 6.631160030801109e-12
0, 0, 12, 1.354915572099324e-11
0, 0, 13, 4.640652445653259e-12
0, 0, 14, 8.46634082285469e-11
0, 0, 15, 2.525908995854032e-11
0, 0, 16, 1.606800283104892e-11
0, 0, 17, 6.630594944628809e-12
0, 0, 18, 9.256762023568399e-12
0, 0, 19, 2.404763020658063e-11
0, 0, 20, 2.147655837891893e-11
0, 0, 21, 4.124865032872904e-11
0, 0, 22, 3.093792930175532e-11
0, 0, 23, 2.636085447149661e-11
0, 0, 24, 3.164300765856609e-11
0, 0, 25, 1.945353080012868e-11
0, 0, 26, 2.936801149489021e-11
0, 0, 27, 2.032217623348931e-11
0, 0, 28, 1.201258970767727e-11
0, 0, 29, 1.253679798862706e-11
0, 0, 30, 1.808158657523595e-11
0, 0, 31, 3.916688501304222e-11
0, 0, 32, 7.633692983288753e-11
0, 0, 33, 5.948520148679748e-11
0, 0, 34, 3.539076670611152e-11
0, 0, 35, 5.524641161214205e-11
0, 0, 36, 6.045217104677647e-11
0, 0, 37, 3.638643206183012e-11
0, 0, 38, 4.820789253900948e-11
0, 0, 39, 2.751421659952236e-11
0, 0, 40, 2.942518798065841e-11
0, 0, 41, 6.221674564432789e-11
0, 0, 42, 4.593731298130344e-11
0, 0, 43, 3.380336982550247e-11
0, 0, 44, 2.978048710411407e-11
0, 0, 45, 2.46580915408412e-11
0, 0, 46, 3.696526071350625e-11
0, 0, 47, 3.111686602830233e-11
0, 0, 48, 6.567065641283065e-11
0, 0, 49, 4.152176172333988e-11
0, 0, 50, 8.861998634923651e-11
0, 0, 51, 2.763342159262105e-11
0, 0, 52, 3.875417695087258e-11
0, 0, 53, 2.75468016452951e-11
0, 0, 54, 5.278433939936988e-11
0, 0, 55, 3.498658307510283e-11
0, 0, 56, 2.957119618618442e-11
0, 0, 57, 3.602276116287939e-11
0, 0, 58, 3.72789750457958e-11
0, 0, 59, 4.173680498431587e-11
0, 0, 60, 3.451025576417521e-11
0, 0, 61, 3.340664897488743e-11
0, 0, 62, 2.416040457975388e-11
0, 0, 63, 2.180728514433738e-11
0, 0, 64, 5.393860705305009e-11
0, 0, 65, 7.810253138673673e-11
0, 0, 66, 3.313655946857175e-11
0, 0, 67, 2.867023805863678e-11
0, 0, 68, 3.124982217439509e-11
0, 0, 69, 1.963632728640974e-11
0, 0, 70, 3.451451277558526e-11
0, 0, 71, 4.275557685673448e-11
0, 0, 72, 1.991279779955946e-10
0, 0, 73, 2.963389533761074e-10
0, 0, 74, 4.57687186761202e-11
0, 0, 75, 8.141293195151889e-11
0, 0, 76, 8.805660367539048e-11
0, 0, 77, 4.688967270016775e-11
0, 0, 78, 1.202439675607181e-10
0, 0, 79, 1.476796185340135e-10
0, 0, 80, 3.727143593756921e-11
0, 0, 81, 3.282586702457735e-11
0, 0, 82, 2.604460744293213e-11
0, 0, 83, 4.902767775094574e-11
0, 0, 84, 9.651257570908456e-11
0, 0, 85, 6.817255787661125e-11
0, 0, 86, 9.692244923309445e-11
0, 0, 87, 7.641168947580823e-11
0, 0, 88, 1.001811064660352e-10
0, 0, 89, 7.418565067807137e-11
0, 0, 90, 7.425755149670366e-11
0, 0, 91, 9.448405946521632e-11
0, 0, 92, 1.409250632855574e-10
0, 0, 93, 1.458208553906104e-10
0, 0, 94, 5.986300344318352e-11
0, 0, 95, 4.497181793627902e-11
0, 0, 96, 6.057095797151746e-11
0, 0, 97, 7.293088355453392e-11
0, 0, 98, 1.336436239451899e-10
0, 0, 99, 5.463126478977287e-11
0, 0, 100, 6.358929355299026e-11
0, 0, 101, 7.453544725866124e-11
0, 0, 102, 5.848548034759204e-11
0, 0, 103, 4.922407967344888e-11
0, 0, 104, 4.891513583071827e-11
0, 0, 105, 7.070052182589492e-11
0, 0, 106, 7.388658435081297e-11
0, 0, 107, 8.409285767729813e-11
0, 0, 108, 8.757482239385439e-11
0, 0, 109, 8.937067058623072e-11
0, 0, 110, 1.485938178058532e-10
0, 0, 111, 1.117220760349369e-10
0, 0, 112, 1.708330421568149e-10
0, 0, 113, 9.399566541778981e-11
0, 0, 114, 8.530554734820228e-11
0, 0, 115, 7.612169922177614e-11
0, 0, 116, 8.596133527216665e-11
0, 0, 117, 7.766706722200922e-11
0, 0, 118, 1.195520488161961e-10
0, 0, 119, 8.803288653602692e-11
0, 0, 120, 8.898676934210314e-11
0, 0, 121, 6.743916536322558e-11
0, 0, 122, 1.110407044091488e-10
0, 0, 123, 7.161447129755416e-11
0, 0, 124, 5.565599717205494e-11
0, 0, 125, 6.960647336295978e-11
0, 0, 126, 7.552345554495687e-11
0, 0, 127, 7.96422025550747e-11
0, 0, 128, 5.652957615898124e-11
0, 0, 129, 4.967293590341093e-11
0, 0, 130, 5.505519998227903e-11
0, 0, 131, 5.158411892081105e-11
0, 0, 132, 6.399589191907751e-11
0, 0, 133, 4.837357597820002e-11
0, 0, 134, 5.335843572540355e-11
0, 0, 135, 4.477904505528763e-11
0, 0, 136, 3.074082655096788e-11
0, 0, 137, 2.943379914799316e-11
0, 0, 138, 4.084371035828482e-11
0, 0, 139, 2.899991878579922e-11
0, 0, 140, 2.405462981580619e-11
0, 0, 141, 6.937744823076741e-11
0, 0, 142, 2.32191262744541e-11
0, 0, 143, 2.230274472048155e-11
0, 0, 144, 7.2238236226152e-11
0, 0, 145, 7.31729121739022e-11
0, 0, 146, 4.977205453338129e-11
0, 0, 147, 1.323940818087621e-10
0, 0, 148, 4.774624792758253e-11
0, 0, 149, 8.284248287360185e-11
0, 0, 150, 2.70571360455607e-11
0, 0, 151, 3.808072607247581e-11
0, 0, 152, 5.202712913265906e-11
0, 0, 153, 7.657426775997678e-11
0, 0, 154, 8.147234276112414e-11
0, 0, 155, 3.886034202760236e-11
0, 0, 156, 2.210367305854888e-11
0, 0, 157, 2.74759850288353e-11
0, 0, 158, 6.516445022475281e-11
0, 0, 159, 4.000336173426433e-11
0, 0, 160, 5.108945558274236e-11
0, 0, 161, 8.13946687827638e-11
0, 0, 162, 3.439051127207549e-11
0, 0, 163, 5.093268862221834e-11
0, 0, 164, 4.37852948342865e-11
0, 0, 165, 2.643292702775302e-11
0, 0, 166, 2.981589974915266e-11
0, 0, 167, 4.520849319900044e-11
0, 0, 168, 4.944279360930004e-11
0, 0, 169, 5.163131727714543e-11
0, 0, 170, 6.04120850566936e-11
0, 0, 171, 2.952658950672316e-11
0, 0, 172, 1.449447922796665e-10
0, 0, 173, 6.664623020125049e-11
0, 0, 174, 9.789984795061102e-11
0, 0, 175, 6.408714531280779e-11
0, 0, 176, 7.109714206254836e-11
0, 0, 177, 4.418654678262079e-11
0, 0, 178, 3.756740057925256e-11
0, 0, 179, 3.712079602036233e-11
0, 0, 180, 4.106478004861636e-11
0, 0, 181, 7.505277649366704e-11
0, 0, 182, 1.177992148271301e-10
0, 0, 183, 4.473220058254235e-11
0, 0, 184, 3.361926709244401e-11
0, 0, 185, 3.884323765412923e-11
0, 0, 186, 9.2341384538841e-11
0, 0, 187, 9.712494003499827e-11
0, 0, 188, 1.15639338382767e-10
0, 0, 189, 7.685262148893202e-11
0, 0, 190, 4.212290238836403e-11
0, 0, 191, 8.902761861051545e-11
0, 0, 192, 8.160110781529895e-11
0, 0, 193, 5.993936597059601e-11
0, 0, 194, 8.23028659113767e-11
0, 0, 195, 7.219786574141906e-11
0, 0, 196, 1.397970628147505e-10
0, 0, 197, 1.118648437770098e-10
0, 0, 198, 3.945048107634186e-11
0, 0, 199, 1.165362112365287e-10
0, 0, 200, 2.348077010605465e-10
0, 0, 201, 6.715951406111031e-11
0, 0, 202, 5.316204421124127e-11
0, 0, 203, 7.696505238685702e-11
0, 0, 204, 8.623352726333522e-11
0, 0, 205, 1.093424864540005e-10
0, 0, 206, 1.497298951491643e-10
0, 0, 207, 9.117927940449633e-11
0, 0, 208, 6.586090006699408e-11
0, 0, 209, 4.973086178972075e-11
0, 0, 210, 5.001476663379911e-11
0, 0, 211, 6.665309276732145e-11
0, 0, 212, 8.211944318992082e-11
0, 0, 213, 2.93074349511091e-11
0, 0, 214, 8.757266439785028e-11
0, 0, 215, 6.067241153928649e-11
0, 0, 216, 5.057095714411375e-11
0, 0, 217, 1.922131065423827e-10
0, 0, 218, 9.797015282364541e-11
0, 0, 219, 7.090927151010007e-11
0, 0, 220, 5.351654536189798e-11
0, 0, 221, 1.451156417253685e-10
0, 0, 222, 7.73667171993786e-11
0, 0, 223, 6.796826990118632e-11
0, 0, 224, 1.228084300919363e-10
0, 0, 225, 1.680585531849133e-10
0, 0, 226, 7.008951058429247e-11
0, 0, 227, 1.115044792610043e-10
0, 0, 228, 1.56650636906619e-10
0, 0, 229, 9.539607298547637e-11
0, 0, 230, 1.472386934597836e-10
0, 0, 231, 3.472547804861392e-10
0, 0, 232, 2.436514323633787e-10
0, 0, 233, 1.232014767982292e-10
0, 0, 234, 1.431277180108381e-10
0, 0, 235, 1.198664362211943e-10
0, 0, 236, 5.865067459476236e-11
0, 0, 237, 7.474759006198539e-11
0, 0, 238, 2.230742951470077e-10
0, 0, 239, 9.610909984525406e-11
0, 0, 240, 1.144644587447452e-10
0, 0, 241, 9.660298255775857e-11
0, 0, 242, 8.215130659072756e-11
0, 0, 243, 9.875856382679515e-11
0, 0, 244, 1.618581241258354e-10
0, 0, 245, 8.509616622465188e-11
0, 0, 246, 9.235396475348878e-11
0, 0, 247, 6.158019233426515e-11
0, 0, 248, 5.305231601249183e-11
0, 0, 249, 6.640341054797716e-11
0, 0, 250, 7.090200648818268e-11
0, 0, 251, 5.372790060076404e-11
0, 0, 252, 9.251392707465556e-11
0, 0, 253, 4.610751017097847e-11
0, 0, 254, 9.149104390759888e-11
0, 0, 255, 1.082140349550897e-10
0, 0, 256, 1.046555689332429e-10
0, 0, 257, 1.568229018866774e-10
0, 0, 258, 7.572679983081088e-11
0, 0, 259, 5.347922799048277e-11
0, 0, 260, 5.916839240782679e-11
0, 0, 261, 8.080171254309931e-11
0, 0, 262, 6.978667643764425e-11
0, 0, 263, 1.220250289701852e-10
0, 0, 264, 1.094122084599469e-10
0, 0, 265, 1.851855890855347e-10
0, 0, 266, 2.672596033370667e-10
0, 0, 267, 3.368202383668972e-10
0, 0, 268, 6.987620482235002e-10
0, 0, 269, 9.02052210705051e-10
0, 0, 270, 1.318875453293344e-09
0, 0, 271, 1.776381486351397e-09
0, 0, 272, 2.13198569909423e-09
0, 0, 273, 3.010559357363718e-09
0, 0, 274, 3.690748817675171e-09
0, 0, 275, 5.112553935759934e-09
0, 0, 276, 5.968441740833441e-09
0, 0, 277, 6.959854470522941e-09
0, 0, 278, 9.285494151356488e-09
0, 0, 279, 1.096951152135262e-08
0, 0, 280, 1.293816254133162e-08
0, 0, 281, 1.484471123802678e-08
0, 0, 282, 1.718154152285933e-08
0, 0, 283, 2.042043689698403e-08
0, 0, 284, 2.29473275936698e-08
0, 0, 285, 2.546053501362167e-08
0, 0, 286, 2.821970568334109e-08
0, 0, 287, 3.081987642872264e-08
0, 0, 288, 3.291149042183861e-08
0, 0, 289, 3.580503005196078e-08
0, 0, 290, 3.782385604722549e-08
0, 0, 291, 3.90711214492967e-08
0, 0, 292, 3.988204966276498e-08
0, 0, 293, 4.042026091610751e-08
0, 0, 294, 4.115880969379759e-08
0, 0, 295, 4.237857353928121e-08
0, 0, 296, 4.226179584065903e-08
0, 0, 297, 4.239185713572624e-08
0, 0, 298, 4.205659109857152e-08
0, 0, 299, 4.243271334303245e-08
0, 0, 300, 4.252240159985377e-08
0, 0, 301, 4.144567355979234e-08
0, 0, 302, 4.041353918182722e-08
0, 0, 303, 3.958525951475167e-08
0, 0, 304, 3.921045532706557e-08
0, 0, 305, 3.874421850014187e-08
0, 0, 306, 3.791909009009942e-08
0, 0, 307, 3.683217997263455e-08
0, 0, 308, 3.590593777857976e-08
0, 0, 309, 3.534150039286033e-08
0, 0, 310, 3.475455301327202e-08
0, 0, 311, 3.401077108833306e-08
0, 0, 312, 3.2926926962773e-08
0, 0, 313, 3.240788615244128e-08
0, 0, 314, 3.174046980802814e-08
0, 0, 315, 3.133429160584456e-08
0, 0, 316, 3.056372221976744e-08
0, 0, 317, 3.047739483008627e-08
0, 0, 318, 2.994084624674542e-08
0, 0, 319, 2.933656517711825e-08
0, 0, 320, 2.854401870422407e-08
0, 0, 321, 2.820179290097258e-08
0, 0, 322, 2.784701536029388e-08
0, 0, 323, 2.756248562718611e-08
0, 0, 324, 2.744290483747136e-08
0, 0, 325, 2.684676303488231e-08
0, 0, 326, 2.668209120315623e-08
0, 0, 327, 2.641319518659202e-08
0, 0, 328, 2.603894699859666e-08
0, 0, 329, 2.535489329602569e-08
0, 0, 330, 2.517918495925642e-08
0, 0, 331, 2.517074371155559e-08
0, 0, 332, 2.473305649175472e-08
0, 0, 333, 2.441823987453517e-08
0, 0, 334, 2.477393046262932e-08
0, 0, 335, 2.453444913896874e-08
0, 0, 336, 2.406589061365594e-08
0, 0, 337, 2.378247465628647e-08
0, 0, 338, 2.357858797097379e-08
0, 0, 339, 2.342825844436902e-08
0, 0, 340, 2.329354309438258e-08
0, 0, 341, 2.305085722298372e-08
0, 0, 342, 2.303094603917089e-08
0, 0, 343, 2.285766953491475e-08
0, 0, 344, 2.290449963027186e-08
0, 0, 345, 2.250409281145949e-08
0, 0, 346, 2.245694297187129e-08
0, 0, 347, 2.208582472462695e-08
0, 0, 348, 2.189797143614669e-08
0, 0, 349, 2.211649885452971e-08
0, 0, 350, 2.18468905188729e-08
0, 0, 351, 2.178645530648282e-08
0, 0, 352, 2.136968824117957e-08
0, 0, 353, 2.13761364165066e-08
0, 0, 354, 2.126693665616131e-08
0, 0, 355, 2.082332706265788e-08
0, 0, 356, 2.114994934743208e-08
0, 0, 357, 2.112459185354965e-08
0, 0, 358, 2.079808325561316e-08
0, 0, 359, 2.083132244479202e-08
0, 0, 360, 2.072852822720961e-08
0, 0, 361, 2.046146896361734e-08
0, 0, 362, 2.056817471896011e-08
0, 0, 363, 2.018532896386205e-08
0, 0, 364, 2.026757783823996e-08
0, 0, 365, 2.014040489939362e-08
0, 0, 366, 2.018322220465052e-08
0, 0, 367, 2.000255783229932e-08
0, 0, 368, 1.992894738123141e-08
0, 0, 369, 1.964045637237177e-08
0, 0, 370, 1.964100171392147e-08
0, 0, 371, 1.962931861498873e-08
0, 0, 372, 1.975458907566008e-08
0, 0, 373, 1.945391581159583e-08
0, 0, 374, 1.984517083997162e-08
0, 0, 375, 1.957905837457474e-08
0, 0, 376, 1.940941452005518e-08
0, 0, 377, 1.915998026902344e-08
0, 0, 378, 1.939406146789224e-08
0, 0, 379, 1.911480929095433e-08
0, 0, 380, 1.929873860717635e-08
0, 0, 381, 1.86549016234494e-08
0, 0, 382, 1.863738674501292e-08
0, 0, 383, 1.870398946834939e-08
0, 0, 384, 1.858554199429818e-08
0, 0, 385, 1.860801823738711e-08
0, 0, 386, 1.894565748727928e-08
0, 0, 387, 1.842058772183464e-08
0, 0, 388, 1.824558637508744e-08
0, 0, 389, 1.81306045732299e-08
0, 0, 390, 1.833772245163345e-08
0, 0, 391, 1.842897923154396e-08
0, 0, 392, 1.823647366450132e-08
0, 0, 393, 1.815685379824572e-08
0, 0, 394, 1.825977768987741e-08
0, 0, 395, 1.796849602442308e-08
0, 0, 396, 1.787041625789243e-08
0, 0, 397, 1.762828105711378e-08
0, 0, 398, 1.786457026753396e-08
0, 0, 399, 1.774875002524823e-08
0, 0, 400, 1.759189238725867e-08
0, 0, 401, 1.745814692810654e-08
0, 0, 402, 1.733522836389056e-08
0, 0, 403, 1.753806877502484e-08
0, 0, 404, 1.731939569538099e-08
0, 0, 405, 1.703345375858589e-08
0, 0, 406, 1.74534875441168e-08
0, 0, 407, 1.73132104208662e-08
0, 0, 408, 1.732122534292557e-08
0, 0, 409, 1.710844621527485e-08
0, 0, 410, 1.732324328429513e-08
0, 0, 411, 1.712486330518459e-08
0, 0, 412, 1.708198560379515e-08
0, 0, 413, 1.732487753258738e-08
0, 0, 414, 1.710393959797329e-08
0, 0, 415, 1.725552145614984e-08
0, 0, 416, 1.706948360435945e-08
0, 0, 417, 1.705247143490851e-08
0, 0, 418, 1.685470074619388e-08
0, 0, 419, 1.708820107637621e-08
0, 0, 420, 1.729991794263697e-08
0, 0, 421, 1.693505069511048e-08
0, 0, 422, 1.713483577248098e-08
0, 0, 423, 1.713015862492284e-08
0, 0, 424, 1.683649308859003e-08
0, 0, 425, 1.656633585866985e-08
0, 0, 426, 1.641764768578469e-08
0, 0, 427, 1.632273338714185e-08
0, 0, 428, 1.668489169048826e-08
0, 0, 429, 1.643349989421949e-08
0, 0, 430, 1.650728087554398e-08
0, 0, 431, 1.616719913499765e-08
0, 0, 432, 1.642090907694183e-08
0, 0, 433, 1.68211133910745e-08
0, 0, 434, 1.633538282419522e-08
0, 0, 435, 1.602500177000366e-08
0, 0, 436, 1.65373350569098e-08
0, 0, 437, 1.606313837498874e-08
0, 0, 438, 1.579653741146103e-08
0, 0, 439, 1.63198183855684e-08
0, 0, 440, 1.611898525766264e-08
0, 0, 441, 1.620209033603714e-08
0, 0, 442, 1.588633047333587e-08
0, 0, 443, 1.560454876425865e-08
0, 0, 444, 1.567441820782278e-08
0, 0, 445, 1.626468204563025e-08
0, 0, 446, 1.619322276269486e-08
0, 0, 447, 1.580263209177701e-08
0, 0, 448, 1.589535258972319e-08
0, 0, 449, 1.590234610659991e-08
0, 0, 450, 1.603265786798147e-08
0, 0, 451, 1.59534856436494e-08
0, 0, 452, 1.594416865202675e-08
0, 0, 453, 1.606776756091222e-08
0, 0, 454, 1.580980502069451e-08
0, 0, 455, 1.564149698651818e-08
0, 0, 456, 1.567244467537421e-08
0, 0, 457, 1.557139306385125e-08
0, 0, 458, 1.553024553402338e-08
0, 0, 459, 1.536822225034484e-08
0, 0, 460, 1.551463135740505e-08
0, 0, 461, 1.561311435693824e-08
0, 0, 462, 1.540823824086601e-08
0, 0, 463, 1.547197392426369e-08
0, 0, 464, 1.522447412583006e-08
0, 0, 465, 1.508590052878844e-08
0, 0, 466, 1.524620785176012e-08
0, 0, 467, 1.504289492970656e-08
0, 0, 468, 1.52500660988153e-08
0, 0, 469, 1.526869120027641e-08
0, 0, 470, 1.544532146624533e-08
0, 0, 471, 1.546555061793242e-08
0, 0, 472, 1.561255480453383e-08
0, 0, 473, 1.543249439350802e-08
0, 0, 474, 1.556352735576638e-08
0, 0, 475, 1.524399628749507e-08
0, 0, 476, 1.552233719337437e-08
0, 0, 477, 1.525384618616954e-08
0, 0, 478, 1.554020911953558e-08
0, 0, 479, 1.52184664869992e-08
0, 0, 480, 1.525659776291377e-08
0, 0, 481, 1.498799484522806e-08
0, 0, 482, 1.512582059604028e-08
0, 0, 483, 1.526217907610317e-08
0, 0, 484, 1.505543600899273e-08
0, 0, 485, 1.542536942622519e-08
0, 0, 486, 1.51442520746059e-08
0, 0, 487, 1.496561452540845e-08
0, 0, 488, 1.485698408743019e-08
0, 0, 489, 1.488958822903896e-08
0, 0, 490, 1.501617852284198e-08
0, 0, 491, 1.507242508580475e-08
0, 0, 492, 1.485343847917875e-08
0, 0, 493, 1.498618118489503e-08
0, 0, 494, 1.515804193275017e-08
0, 0, 495, 1.476031297187319e-08
0, 0, 496, 1.490161949391222e-08
0, 0, 497, 1.467108834418696e-08
0, 0, 498, 1.490067713660892e-08
0, 0, 499, 1.509294911272718e-08
0, 0, 500, 1.476023747670752e-08
0, 0, 501, 1.486541467698999e-08
0, 0, 502, 1.462152177111875e-08
0, 0, 503, 1.473141431063141e-08
0, 0, 504, 1.493332391078184e-08
0, 0, 505, 1.475427158226239e-08
0, 0, 506, 1.482293399135415e-08
0, 0, 507, 1.493650003681068e-08
0, 0, 508, 1.451797260187959e-08
0, 0, 509, 1.473153421471807e-08
0, 0, 510, 1.479135836035539e-08
0, 0, 511, 1.462192589229971e-08
0, 0, 512, 1.463427334869039e-08
0, 0, 513, 1.485325462624587e-08
0, 0, 514, 1.479930045178435e-08
0, 0, 515, 1.468850818753253e-08
0, 0, 516, 1.446085207135184e-08
0, 0, 517, 1.432144536295255e-08
0, 0, 518, 1.441805874691227e-08
0, 0, 519, 1.440676999919788e-08
0, 0, 520, 1.449072151160635e-08
0, 0, 521, 1.451615094794079e-08
0, 0, 522, 1.456181397685441e-08
0, 0, 523, 1.450849040907087e-08
0, 0, 524, 1.446930930626422e-08
0, 0, 525, 1.435234597835233e-08
0, 0, 526, 1.434574592451554e-08
0, 0, 527, 1.43231657645515e-08
0, 0, 528, 1.442870622980763e-08
0, 0, 529, 1.445250674692033e-08
0, 0, 530, 1.437238328350077e-08
0, 0, 531, 1.46218352981009e-08
0, 0, 532, 1.461771503841192e-08
0, 0, 533, 1.465985999260511e-08
0, 0, 534, 1.46895073882547e-08
0, 0, 535, 1.445307518110894e-08
0, 0, 536, 1.441030672566512e-08
0, 0, 537, 1.430716789485587e-08
0, 0, 538, 1.426676288218687e-08
0, 0, 539, 1.414128192323005e-08
0, 0, 540, 1.523743264897348e-08
0, 0, 541, 1.473765198767296e-08
0, 0, 542, 1.430998075591106e-08
0, 0, 543, 1.43773171146222e-08
0, 0, 544, 1.443951713753222e-08
0, 0, 545, 1.441635522070328e-08
0, 0, 546, 1.447519970554367e-08
0, 0, 547, 1.450997544338861e-08
0, 0, 548, 1.457731979570553e-08
0, 0, 549, 1.46545620083316e-08
0, 0, 550, 1.443899488862144e-08
0, 0, 551, 1.440712438238734e-08
0, 0, 552, 1.431595908485406e-08
0, 0, 553, 1.414147554612555e-08
0, 0, 554, 1.391208304113434e-08
0, 0, 555, 1.411629124703495e-08
0, 0, 556, 1.409849037514732e-08
0, 0, 557, 1.408570948768784e-08
0, 0, 558, 1.405955085687083e-08
0, 0, 559, 1.384503267587434e-08
0, 0, 560, 1.405523164521583e-08
0, 0, 561, 1.361574497593665e-08
0, 0, 562, 1.361526891230369e-08
0, 0, 563, 1.36397639849406e-08
0, 0, 564, 1.381194802974051e-08
0, 0, 565, 1.369702395948025e-08
0, 0, 566, 1.390005799351002e-08
0, 0, 567, 1.400059979062007e-08
0, 0, 568, 1.389218784453305e-08
0, 0, 569, 1.368997359918467e-08
0, 0, 570, 1.413607719769061e-08
0, 0, 571, 1.384990877539849e-08
0, 0, 572, 1.361148083134367e-08
0, 0, 573, 1.368329094475484e-08
0, 0, 574, 1.386906856026826e-08
0, 0, 575, 1.367724689060879e-08
0, 0, 576, 1.398467830426853e-08
0, 0, 577, 1.402851967924335e-08
0, 0, 578, 1.415442341112794e-08
0, 0, 579, 1.39918725494681e-08
0, 0, 580, 1.403599458882354e-08
0, 0, 581, 1.395719451124933e-08
0, 0, 582, 1.378962544151818e-08
0, 0, 583, 1.38525377835208e-08
0, 0, 584, 1.384054382214117e-08
0, 0, 585, 1.379190539552155e-08
0, 0, 586, 1.358689694086479e-08
0, 0, 587, 1.429614560066739e-08
0, 0, 588, 1.414688899359362e-08
0, 0, 589, 1.391072057543852e-08
0, 0, 590, 1.372281310807466e-08
0, 0, 591, 1.36308910825278e-08
0, 0, 592, 1.350268874489302e-08
0, 0, 593, 1.344573430372975e-08
0, 0, 594, 1.392187698456837e-08
0, 0, 595, 1.346620148723332e-08
0, 0, 596, 1.347070810453488e-08
0, 0, 597, 1.343529376640618e-08
0, 0, 598, 1.344312927642477e-08
0, 0, 599, 1.337707100645957e-08
0, 0, 600, 1.372340197036692e-08
0, 0, 601, 1.399511795341368e-08
0, 0, 602, 1.379378034016554e-08
0, 0, 603, 1.367384783179659e-08
0, 0, 604, 1.371044699993718e-08
0, 0, 605, 1.344040345685471e-08
0, 0, 606, 1.396009530196807e-08
0, 0, 607, 1.413327499477646e-08
0, 0, 608, 1.405342064941806e-08
0, 0, 609, 1.366253510326487e-08
0, 0, 610, 1.369784907723215e-08
0, 0, 611, 1.350160871993467e-08
0, 0, 612, 1.354148704280078e-08
0, 0, 613, 1.352297829271265e-08
0, 0, 614, 1.345366218430399e-08
0, 0, 615, 1.362058998921611e-08
0, 0, 616, 1.348832068259753e-08
0, 0, 617, 1.331030929918597e-08
0, 0, 618, 1.346377231925544e-08
0, 0, 619, 1.348987588301043e-08
0, 0, 620, 1.34241950888736e-08
0, 0, 621, 1.372656477371947e-08
0, 0, 622, 1.356815282349544e-08
0, 0, 623, 1.348190092897994e-08
0, 0, 624, 1.396519699881082e-08
0, 0, 625, 1.377423775039688e-08
0, 0, 626, 1.363276780352862e-08
0, 0, 627, 1.340039190722564e-08
0, 0, 628, 1.336887667235942e-08
0, 0, 629, 1.334325094859423e-08
0, 0, 630, 1.350159450907995e-08
0, 0, 631, 1.349656830740287e-08
0, 0, 632, 1.359278023471688e-08
0, 0, 633, 1.306970176528921e-08
0, 0, 634, 1.303620589254706e-08
0, 0, 635, 1.325061838031161e-08
0, 0, 636, 1.345499178739828e-08
0, 0, 637, 1.344714473106023e-08
0, 0, 638, 1.337914223853431e-08
0, 0, 639, 1.339775579367597e-08
0, 0, 640, 1.321728948511236e-08
0, 0, 641, 1.306457697580754e-08
0, 0, 642, 1.30696831135424e-08
0, 0, 643, 1.284272865831326e-08
0, 0, 644, 1.29095010237279e-08
0, 0, 645, 1.332184140778736e-08
0, 0, 646, 1.324036080774249e-08
0, 0, 647, 1.295704343817761e-08
0, 0, 648, 1.308162911328736e-08
0, 0, 649, 1.31993518337481e-08
0, 0, 650, 1.301618457461018e-08
0, 0, 651, 1.285065920342277e-08
0, 0, 652, 1.315074715790843e-08
0, 0, 653, 1.304661179091227e-08
0, 0, 654, 1.307787123039361e-08
0, 0, 655, 1.324019027748591e-08
0, 0, 656, 1.314952680075976e-08
0, 0, 657, 1.323438869604843e-08
0, 0, 658, 1.319385933840067e-08
0, 0, 659, 1.310672193000073e-08
0, 0, 660, 1.312556907606677e-08
0, 0, 661, 1.338132715744678e-08
0, 0, 662, 1.296426166419451e-08
0, 0, 663, 1.298249951986463e-08
0, 0, 664, 1.334665622465536e-08
0, 0, 665, 1.288983586533732e-08
0, 0, 666, 1.283585415734478e-08
0, 0, 667, 1.318144526862852e-08
0, 0, 668, 1.298795826443211e-08
0, 0, 669, 1.313168063177272e-08
0, 0, 670, 1.288208562044701e-08
0, 0, 671, 1.292690754439718e-08
0, 0, 672, 1.309724773079779e-08
0, 0, 673, 1.277924788212204e-08
0, 0, 674, 1.305197194767516e-08
0, 0, 675, 1.326209098095887e-08
0, 0, 676, 1.315813680236033e-08
0, 0, 677, 1.312011832510507e-08
0, 0, 678, 1.347929945438864e-08
0, 0, 679, 1.300518981395271e-08
0, 0, 680, 1.306370389642098e-08
0, 0, 681, 1.301285124100104e-08
0, 0, 682, 1.325512766214842e-08
0, 0, 683, 1.324600340524285e-08
0, 0, 684, 1.298151452999718e-08
0, 0, 685, 1.314984299227717e-08
0, 0, 686, 1.306239472143034e-08
0, 0, 687, 1.340041322350771e-08
0, 0, 688, 1.309425368134498e-08
0, 0, 689, 1.309143815575453e-08
0, 0, 690, 1.275062366801194e-08
0, 0, 691, 1.280098516076578e-08
0, 0, 692, 1.304269758861665e-08
0, 0, 693, 1.305745023216787e-08
0, 0, 694, 1.311896191680262e-08
0, 0, 695, 1.286178985537845e-08
0, 0, 696, 1.320920528513625e-08
0, 0, 697, 1.298025154028437e-08
0, 0, 698, 1.29674937454638e-08
0, 0, 699, 1.291542250925204e-08
0, 0, 700, 1.281443662293213e-08
0, 0, 701, 1.291360174349165e-08
0, 0, 702, 1.298553975459527e-08
0, 0, 703, 1.315453790340371e-08
0, 0, 704, 1.305233698900565e-08
0, 0, 705, 1.316346942559221e-08
0, 0, 706, 1.282691552972892e-08
0, 0, 707, 1.275976480030749e-08
0, 0, 708, 1.27310144648618e-08
0, 0, 709, 1.260558057936123e-08
0, 0, 710, 1.291748397136416e-08
0, 0, 711, 1.305005259411018e-08
0, 0, 712, 1.267581595243428e-08
0, 0, 713, 1.273005167945485e-08
0, 0, 714, 1.29926513992018e-08
0, 0, 715, 1.253919190702391e-08
0, 0, 716, 1.232769708536807e-08
0, 0, 717, 1.263520843508559e-08
0, 0, 718, 1.24495223019494e-08
0, 0, 719, 1.283058104206702e-08
0, 0, 720, 1.250768111304978e-08
0, 0, 721, 1.237213620441935e-08
0, 0, 722, 1.270110594475682e-08
0, 0, 723, 1.266689775292207e-08
0, 0, 724, 1.297372964614851e-08
0, 0, 725, 1.276042560505175e-08
0, 0, 726, 1.286170814296383e-08
0, 0, 727, 1.295066098805364e-08
0, 0, 728, 1.288057838166878e-08
0, 0, 729, 1.272371807914396e-08
0, 0, 730, 1.279726724590091e-08
0, 0, 731, 1.244293112989681e-08
0, 0, 732, 1.246475278549042e-08
0, 0, 733, 1.232119561933587e-08
0, 0, 734, 1.23052235068144e-08
0, 0, 735, 1.263476168134048e-08
0, 0, 736, 1.260110327194752e-08
0, 0, 737, 1.249100911593359e-08
0, 0, 738, 1.253573511661443e-08
0, 0, 739, 1.255731607585631e-08
0, 0, 740, 1.246301462032307e-08
0, 0, 741, 1.305602470580425e-08
0, 0, 742, 1.286615791684653e-08
0, 0, 743, 1.295113083443766e-08
0, 0, 744, 1.303348717840436e-08
0, 0, 745, 1.299720153724593e-08
0, 0, 746, 1.262753901443148e-08
0, 0, 747, 1.274347560809019e-08
0, 0, 748, 1.244576264269881e-08
0, 0, 749, 1.265295868080329e-08
0, 0, 750, 1.254693593466527e-08
0, 0, 751, 1.236238134083578e-08
0, 0, 752, 1.27214336842485e-08
0, 0, 753, 1.234545177197788e-08
0, 0, 754, 1.229143009595646e-08
0, 0, 755, 1.203332811172686e-08
0, 0, 756, 1.215171963053763e-08
0, 0, 757, 1.218712597506055e-08
0, 0, 758, 1.227399071268565e-08
0, 0, 759, 1.254812165285557e-08
0, 0, 760, 1.234564539487337e-08
0, 0, 761, 1.244075509276854e-08
0, 0, 762, 1.252896719705632e-08
0, 0, 763, 1.285382200677532e-08
0, 0, 764, 1.233741819817169e-08
0, 0, 765, 1.244095315655613e-08
0, 0, 766, 1.251818293468432e-08
0, 0, 767, 1.257946191657311e-08
0, 0, 768, 1.235057123238903e-08
0, 0, 769, 1.24203118900823e-08
0, 0, 770, 1.223048862186715e-08
0, 0, 771, 1.224059964499702e-08
0, 0, 772, 1.205918476188117e-08
0, 0, 773, 1.267723792608422e-08
0, 0, 774, 1.276550065654192e-08
0, 0, 775, 1.236019020467438e-08
0, 0, 776, 1.237473945536749e-08
0, 0, 777, 1.219230938431792e-08
0, 0, 778, 1.216324907460375e-08
0, 0, 779, 1.231468171880579e-08
0, 0, 780, 1.215714906521725e-08
0, 0, 781, 1.23707453170141e-08
0, 0, 782, 1.2356223599852e-08
0, 0, 783, 1.243136793505073e-08
0, 0, 784, 1.205700606021765e-08
0, 0, 785, 1.204326061099437e-08
0, 0, 786, 1.212688971463649e-08
0, 0, 787, 1.191984821957703e-08
0, 0, 788, 1.194954091232603e-08
0, 0, 789, 1.197486554360694e-08
0, 0, 790, 1.204571820068168e-08
0, 0, 791, 1.194512044833118e-08
0, 0, 792, 1.173087849082322e-08
0, 0, 793, 1.192677601125069e-08
0, 0, 794, 1.193448628811211e-08
0, 0, 795, 1.195866250469635e-08
0, 0, 796, 1.26168728797893e-08
0, 0, 797, 1.208073285852151e-08
0, 0, 798, 1.192621112977577e-08
0, 0, 799, 1.207399780156493e-08
0, 0, 800, 1.210674938079137e-08
0, 0, 801, 1.22219834253201e-08
0, 0, 802, 1.207968391980785e-08
0, 0, 803, 1.207660904611885e-08
0, 0, 804, 1.187920961598365e-08
0, 0, 805, 1.211331568384821e-08
0, 0, 806, 1.211776190501723e-08
0, 0, 807, 1.203316912778973e-08
0, 0, 808, 1.215959066769301e-08
0, 0, 809, 1.192826282192527e-08
0, 0, 810, 1.212120004367989e-08
0, 0, 811, 1.217974254785759e-08
0, 0, 812, 1.2610637867283e-08
0, 0, 813, 1.189413900704039e-08
0, 0, 814, 1.197232446514818e-08
0, 0, 815, 1.220601042462022e-08
0, 0, 816, 1.203368071855948e-08
0, 0, 817, 1.191067955375047e-08
0, 0, 818, 1.196712062778715e-08
0, 0, 819, 1.186482645465503e-08
0, 0, 820, 1.202716504167256e-08
0, 0, 821, 1.19435750178809e-08
0, 0, 822, 1.190156773134277e-08
0, 0, 823, 1.238225522115499e-08
0, 0, 824, 1.197127197372083e-08
0, 0, 825, 1.185683196069931e-08
0, 0, 826, 1.1615234996043e-08
0, 0, 827, 1.206213795512667e-08
0, 0, 828, 1.208241506844843e-08
0, 0, 829, 1.215935352405495e-08
0, 0, 830, 1.24603740658813e-08
0, 0, 831, 1.209941657975833e-08
0, 0, 832, 1.214904177260223e-08
0, 0, 833, 1.225138834826112e-08
0, 0, 834, 1.190539489215325e-08
0, 0, 835, 1.171562313828645e-08
0, 0, 836, 1.212359634905624e-08
0, 0, 837, 1.205868827014456e-08
0, 0, 838, 1.194556809025471e-08
0, 0, 839, 1.179470654477655e-08
0, 0, 840, 1.13312541571986e-08
0, 0, 841, 1.14859268762757e-08
0, 0, 842, 1.171662322718703e-08
0, 0, 843, 1.162906659857299e-08
0, 0, 844, 1.161347995548567e-08
0, 0, 845, 1.155106943429018e-08
0, 0, 846, 1.140988192815939e-08
0, 0, 847, 1.164533713904348e-08
0, 0, 848, 1.149230133279389e-08
0, 0, 849, 1.17220277928709e-08
0, 0, 850, 1.17570362334618e-08
0, 0, 851, 1.186804698960486e-08
0, 0, 852, 1.179209796475789e-08
0, 0, 853, 1.137149485685995e-08
0, 0, 854, 1.157977358445805e-08
0, 0, 855, 1.161680796002429e-08
0, 0, 856, 1.154037221340332e-08
0, 0, 857, 1.145158190496431e-08
0, 0, 858, 1.164289198385404e-08
0, 0, 859, 1.154697759631063e-08
0, 0, 860, 1.158100904063986e-08
0, 0, 861, 1.148188033539554e-08
0, 0, 862, 1.166133323238228e-08
0, 0, 863, 1.142677241716683e-08
0, 0, 864, 1.144171424272145e-08
0, 0, 865, 1.142862515735033e-08
0, 0, 866, 1.153769169093266e-08
0, 0, 867, 1.134169735905743e-08
0, 0, 868, 1.126653703664715e-08
0, 0, 869, 1.140131633547981e-08
0, 0, 870, 1.150964301643853e-08
0, 0, 871, 1.130693849660247e-08
0, 0, 872, 1.116771475295764e-08
0, 0, 873, 1.177389208351087e-08
0, 0, 874, 1.192760556989469e-08
0, 0, 875, 1.189537712775746e-08
0, 0, 876, 1.167083318875939e-08
0, 0, 877, 1.160895291008046e-08
0, 0, 878, 1.159969542641193e-08
0, 0, 879, 1.144798922325663e-08
0, 0, 880, 1.150737283239778e-08
0, 0, 881, 1.14285789720725e-08
0, 0, 882, 1.159869178479767e-08
0, 0, 883, 1.166613383674076e-08
0, 0, 884, 1.131853277769324e-08
0, 0, 885, 1.164427665401035e-08
0, 0, 886, 1.134433169625026e-08
0, 0, 887, 1.183755138356446e-08
0, 0, 888, 1.142526251385334e-08
0, 0, 889, 1.179348529944946e-08
0, 0, 890, 1.165238305844696e-08
0, 0, 891, 1.191969190017517e-08
0, 0, 892, 1.120097348206173e-08
0, 0, 893, 1.126763304881706e-08
0, 0, 894, 1.134747495967758e-08
0, 0, 895, 1.142374905782617e-08
0, 0, 896, 1.145080030795498e-08
0, 0, 897, 1.161058360565903e-08
0, 0, 898, 1.148756112456795e-08
0, 0, 899, 1.161366913748907e-08
0, 0, 900, 1.14219558255968e-08
0, 0, 901, 1.124364779059306e-08
0, 0, 902, 1.122437875977766e-08
0, 0, 903, 1.178863673345631e-08
0, 0, 904, 1.136278715563321e-08
0, 0, 905, 1.133612848036591e-08
0, 0, 906, 1.143956751548103e-08
