# TOPAS Version: 3.9
# Parameter File: ./bragg_peak/jobs/job9.txt
# Results for scorer: DoseScorer
# Scored in component: Phantom
# R in 1 bin  of 15 cm
# Phi in 1 bin  of 360 deg
# Z in 1000 bins of 0.04 cm
# DoseToMedium ( Gy ) : Sum   
0, 0, 0, 6.195825102972563e-11
0, 0, 1, 5.789871013184289e-11
0, 0, 2, 5.426749674630749e-11
0, 0, 3, 5.123942936613446e-11
0, 0, 4, 4.771794070990154e-11
0, 0, 5, 4.487943697228935e-11
0, 0, 6, 4.461132852018324e-11
0, 0, 7, 4.024464095309099e-11
0, 0, 8, 6.282102615884355e-11
0, 0, 9, 3.575878829154e-11
0, 0, 10, 5.975257788559674e-11
0, 0, 11, 4.748803780763033e-11
0, 0, 12, 2.645018579161551e-11
0, 0, 13, 5.746188594391022e-11
0, 0, 14, 2.777617719162961e-11
0, 0, 15, 4.626129340712382e-11
0, 0, 16, 9.650943239014609e-11
0, 0, 17, 9.786924048960088e-11
0, 0, 18, 8.003279289292564e-11
0, 0, 19, 1.036907643081619e-10
0, 0, 20, 7.996211331962044e-11
0, 0, 21, 5.870196689850005e-11
0, 0, 22, 6.498998561532687e-11
0, 0, 23, 6.841615468600182e-11
0, 0, 24, 5.738332378713018e-11
0, 0, 25, 4.031220843248029e-11
0, 0, 26, 1.160680856981955e-10
0, 0, 27, 7.843024146803046e-11
0, 0, 28, 5.880023551396718e-11
0, 0, 29, 3.472857418307385e-11
0, 0, 30, 3.4834423540131e-11
0, 0, 31, 3.847524382427636e-11
0, 0, 32, 9.793294647453266e-11
0, 0, 33, 6.391375623193696e-11
0, 0, 34, 7.008021940535514e-11
0, 0, 35, 8.78968078876774e-11
0, 0, 36, 7.396185053298865e-11
0, 0, 37, 6.297586757630924e-11
0, 0, 38, 4.954643639809575e-11
0, 0, 39, 4.189593810766112e-11
0, 0, 40, 3.450527363835221e-11
0, 0, 41, 3.062540152032334e-11
0, 0, 42, 2.783663403949088e-11
0, 0, 43, 2.448030667068224e-11
0, 0, 44, 2.719525646344145e-11
0, 0, 45, 5.866805652399165e-11
0, 0, 46, 5.111317272210592e-11
0, 0, 47, 4.213874388314665e-11
0, 0, 48, 4.079842713666793e-11
0, 0, 49, 3.438921369891546e-11
0, 0, 50, 3.962430730752864e-11
0, 0, 51, 4.223080218856978e-11
0, 0, 52, 4.128620015309004e-11
0, 0, 53, 6.416258496733107e-11
0, 0, 54, 5.817864592860822e-11
0, 0, 55, 4.295962197087277e-11
0, 0, 56, 3.770996362395529e-11
0, 0, 57, 3.738769710492917e-11
0, 0, 58, 7.175645494461591e-11
0, 0, 59, 6.064222041191059e-11
0, 0, 60, 8.863227513034033e-11
0, 0, 61, 4.630419658813167e-11
0, 0, 62, 3.792977043559631e-11
0, 0, 63, 4.89237053646896e-11
0, 0, 64, 3.254484182146911e-11
0, 0, 65, 3.756070107718834e-11
0, 0, 66, 4.036052742018015e-11
0, 0, 67, 2.854111391670244e-11
0, 0, 68, 6.54959975143754e-11
0, 0, 69, 3.67196481554366e-11
0, 0, 70, 5.655911156088322e-11
0, 0, 71, 3.98291781500415e-11
0, 0, 72, 2.81806210311597e-11
0, 0, 73, 4.852154442125389e-11
0, 0, 74, 2.783989358490224e-11
0, 0, 75, 3.101296303098522e-11
0, 0, 76, 6.921145601079814e-11
0, 0, 77, 4.304392259291134e-11
0, 0, 78, 7.772982951737006e-11
0, 0, 79, 2.383954318674331e-11
0, 0, 80, 1.94385531976371e-11
0, 0, 81, 3.645159868392867e-11
0, 0, 82, 3.145222970957207e-11
0, 0, 83, 5.884302767267258e-11
0, 0, 84, 1.133728180779947e-10
0, 0, 85, 1.380080355550817e-10
0, 0, 86, 7.996917017472072e-11
0, 0, 87, 3.833652145734945e-11
0, 0, 88, 7.673729013335517e-11
0, 0, 89, 8.383898436603587e-11
0, 0, 90, 5.396949206981638e-11
0, 0, 91, 4.194808042590203e-11
0, 0, 92, 6.286491466278576e-11
0, 0, 93, 7.728239576065832e-11
0, 0, 94, 5.847584222395952e-11
0, 0, 95, 4.312827178720724e-11
0, 0, 96, 8.996697831165079e-11
0, 0, 97, 8.774845433601186e-11
0, 0, 98, 5.856239104762295e-11
0, 0, 99, 7.840924437507724e-11
0, 0, 100, 1.424488860202189e-10
0, 0, 101, 1.435912916347704e-10
0, 0, 102, 1.513260905472436e-10
0, 0, 103, 1.680230121703374e-10
0, 0, 104, 9.755952989909389e-11
0, 0, 105, 8.747156471367035e-11
0, 0, 106, 1.072928412781948e-10
0, 0, 107, 9.39823358026004e-11
0, 0, 108, 1.822580836252641e-10
0, 0, 109, 1.379118208522101e-10
0, 0, 110, 1.812179850624318e-10
0, 0, 111, 1.118886233664185e-10
0, 0, 112, 7.69772648401279e-11
0, 0, 113, 6.027611049175263e-11
0, 0, 114, 6.72683436730992e-11
0, 0, 115, 1.370823315971492e-10
0, 0, 116, 9.695968333778282e-11
0, 0, 117, 1.69361538682189e-10
0, 0, 118, 8.474612678277538e-11
0, 0, 119, 6.564700866240614e-11
0, 0, 120, 6.396783797102401e-11
0, 0, 121, 4.872382358689364e-11
0, 0, 122, 7.770257354211552e-11
0, 0, 123, 6.868831892159477e-11
0, 0, 124, 7.847427568874465e-11
0, 0, 125, 6.865390894672529e-11
0, 0, 126, 4.977778952919287e-11
0, 0, 127, 3.982990326445446e-11
0, 0, 128, 8.47648062851647e-11
0, 0, 129, 7.425594861221185e-11
0, 0, 130, 5.419212648072325e-11
0, 0, 131, 7.32251134727413e-11
0, 0, 132, 7.986927785808007e-11
0, 0, 133, 5.465939506565931e-11
0, 0, 134, 6.809534880414247e-11
0, 0, 135, 6.637104754680934e-11
0, 0, 136, 9.197179129394328e-11
0, 0, 137, 1.579645164673238e-10
0, 0, 138, 7.743879149035848e-11
0, 0, 139, 1.465526311417165e-10
0, 0, 140, 7.768193033275139e-11
0, 0, 141, 7.033777033038646e-11
0, 0, 142, 6.782484296419256e-11
0, 0, 143, 7.543881491711701e-11
0, 0, 144, 1.011064704181663e-10
0, 0, 145, 7.922774936108823e-11
0, 0, 146, 6.007189884416064e-11
0, 0, 147, 5.613723721986652e-11
0, 0, 148, 5.746873810164033e-11
0, 0, 149, 8.815601720835176e-11
0, 0, 150, 9.065639211547349e-11
0, 0, 151, 1.157786019834184e-10
0, 0, 152, 8.57348220195675e-11
0, 0, 153, 7.022623454977506e-11
0, 0, 154, 2.88109452961649e-10
0, 0, 155, 7.627162096346396e-11
0, 0, 156, 8.154430602980156e-11
0, 0, 157, 7.851323757801509e-11
0, 0, 158, 7.481834596312353e-11
0, 0, 159, 1.069456884161823e-10
0, 0, 160, 7.269881918681165e-11
0, 0, 161, 4.35526406605824e-11
0, 0, 162, 4.702764566655304e-11
0, 0, 163, 5.517314036196375e-11
0, 0, 164, 7.477431868130324e-11
0, 0, 165, 1.035707700158817e-10
0, 0, 166, 7.624589848376218e-11
0, 0, 167, 1.211204470052962e-10
0, 0, 168, 8.031451198542428e-11
0, 0, 169, 5.600820154882946e-11
0, 0, 170, 7.822662656531421e-11
0, 0, 171, 1.067615162941848e-10
0, 0, 172, 6.660520052159669e-11
0, 0, 173, 5.931233282296944e-11
0, 0, 174, 1.066460184051543e-10
0, 0, 175, 5.404357517058145e-11
0, 0, 176, 6.950732350796684e-11
0, 0, 177, 6.271693581139104e-11
0, 0, 178, 5.411542394750946e-11
0, 0, 179, 1.041692357373059e-10
0, 0, 180, 8.35697969159277e-11
0, 0, 181, 6.32183888571447e-11
0, 0, 182, 6.194415119731289e-11
0, 0, 183, 5.58412482920545e-11
0, 0, 184, 4.55152963929617e-11
0, 0, 185, 4.605752584874168e-11
0, 0, 186, 7.053498757292331e-11
0, 0, 187, 5.714551748470242e-11
0, 0, 188, 6.961634047009113e-11
0, 0, 189, 5.563322025281536e-11
0, 0, 190, 4.517313953456004e-11
0, 0, 191, 6.282669523516304e-11
0, 0, 192, 4.170547240889277e-11
0, 0, 193, 7.444103666820467e-11
0, 0, 194, 8.412983504291205e-11
0, 0, 195, 6.410523500921528e-11
0, 0, 196, 4.711000686774547e-11
0, 0, 197, 5.262380461945604e-11
0, 0, 198, 5.130720501234087e-11
0, 0, 199, 1.17912082875371e-10
0, 0, 200, 8.615264751599128e-11
0, 0, 201, 5.899818134036394e-11
0, 0, 202, 9.355213131945206e-11
0, 0, 203, 4.72805579410096e-11
0, 0, 204, 6.574650546209426e-11
0, 0, 205, 4.865961800160079e-11
0, 0, 206, 4.914301604541649e-11
0, 0, 207, 7.489440317920426e-11
0, 0, 208, 7.554917802465866e-11
0, 0, 209, 1.20700491268444e-10
0, 0, 210, 2.070877219706446e-10
0, 0, 211, 1.151230222262711e-10
0, 0, 212, 1.041224675923935e-10
0, 0, 213, 1.527728915595716e-10
0, 0, 214, 1.459079662646801e-10
0, 0, 215, 1.146057693190983e-10
0, 0, 216, 1.104329128143178e-10
0, 0, 217, 1.537487359648537e-10
0, 0, 218, 1.503693697335606e-10
0, 0, 219, 9.25413495833638e-11
0, 0, 220, 2.032740920032694e-10
0, 0, 221, 1.386789016954992e-10
0, 0, 222, 1.072045646699493e-10
0, 0, 223, 2.172506896602755e-10
0, 0, 224, 1.416798206532732e-10
0, 0, 225, 1.056959034184679e-10
0, 0, 226, 7.59999840838077e-11
0, 0, 227, 8.803532208778719e-11
0, 0, 228, 8.848264482219648e-11
0, 0, 229, 1.188573267585369e-10
0, 0, 230, 1.016240772089283e-10
0, 0, 231, 1.391660675587048e-10
0, 0, 232, 1.692957302124043e-10
0, 0, 233, 1.136590474515309e-10
0, 0, 234, 1.19851004121152e-10
0, 0, 235, 1.004236624413402e-10
0, 0, 236, 1.127075793805332e-10
0, 0, 237, 7.091614795395884e-11
0, 0, 238, 8.930994138678372e-11
0, 0, 239, 1.895115175898354e-10
0, 0, 240, 1.830651047418641e-10
0, 0, 241, 1.543993266572841e-10
0, 0, 242, 4.993201338510111e-11
0, 0, 243, 9.083431923295748e-11
0, 0, 244, 8.517040545052978e-11
0, 0, 245, 6.540402247567911e-11
0, 0, 246, 9.112915977382841e-11
0, 0, 247, 6.237327321301223e-11
0, 0, 248, 1.160393170440699e-10
0, 0, 249, 1.399202281815448e-10
0, 0, 250, 9.545557400070237e-11
0, 0, 251, 1.111105443762916e-10
0, 0, 252, 1.390839526882459e-10
0, 0, 253, 1.293863766127501e-10
0, 0, 254, 4.551886645387526e-11
0, 0, 255, 5.626519042345457e-11
0, 0, 256, 1.254051029686565e-10
0, 0, 257, 1.517151404506478e-10
0, 0, 258, 6.308275429800503e-11
0, 0, 259, 7.393799461574702e-11
0, 0, 260, 1.092079759956732e-10
0, 0, 261, 1.437441277118978e-10
0, 0, 262, 1.945881095144486e-10
0, 0, 263, 1.130651960945528e-10
0, 0, 264, 2.202782262150649e-10
0, 0, 265, 2.914681274113207e-10
0, 0, 266, 3.960663186308722e-10
0, 0, 267, 4.447822388176093e-10
0, 0, 268, 5.352665533031598e-10
0, 0, 269, 8.54573467545805e-10
0, 0, 270, 1.143739103426356e-09
0, 0, 271, 1.656345172129647e-09
0, 0, 272, 2.278122357424195e-09
0, 0, 273, 2.840195190145778e-09
0, 0, 274, 3.588883190630554e-09
0, 0, 275, 4.503253769883031e-09
0, 0, 276, 5.70232350227684e-09
0, 0, 277, 7.07771041774663e-09
0, 0, 278, 8.962949493707129e-09
0, 0, 279, 1.052528997291802e-08
0, 0, 280, 1.315401831902818e-08
0, 0, 281, 1.524033343969222e-08
0, 0, 282, 1.807541316622974e-08
0, 0, 283, 2.052688330422825e-08
0, 0, 284, 2.205290883239286e-08
0, 0, 285, 2.490407347011114e-08
0, 0, 286, 2.765078832567269e-08
0, 0, 287, 2.966919687708014e-08
0, 0, 288, 3.211219379295471e-08
0, 0, 289, 3.499703282727751e-08
0, 0, 290, 3.712900920049833e-08
0, 0, 291, 3.836381878841166e-08
0, 0, 292, 4.012313326029471e-08
0, 0, 293, 4.172544265657052e-08
0, 0, 294, 4.255391061747105e-08
0, 0, 295, 4.22004156064304e-08
0, 0, 296, 4.300796874190382e-08
0, 0, 297, 4.258208363694393e-08
0, 0, 298, 4.295378275287476e-08
0, 0, 299, 4.24958344069637e-08
0, 0, 300, 4.254878405163254e-08
0, 0, 301, 4.135703690621995e-08
0, 0, 302, 4.025354272130244e-08
0, 0, 303, 4.005751819136094e-08
0, 0, 304, 3.933962844371308e-08
0, 0, 305, 3.812759175048086e-08
0, 0, 306, 3.739734211194445e-08
0, 0, 307, 3.661667236087851e-08
0, 0, 308, 3.567274120541697e-08
0, 0, 309, 3.499406631135571e-08
0, 0, 310, 3.412147364656448e-08
0, 0, 311, 3.374027102154287e-08
0, 0, 312, 3.287978600496899e-08
0, 0, 313, 3.260449688013978e-08
0, 0, 314, 3.162453410254784e-08
0, 0, 315, 3.108668877871423e-08
0, 0, 316, 3.033976625488322e-08
0, 0, 317, 3.026525874361141e-08
0, 0, 318, 2.94569986181159e-08
0, 0, 319, 2.892651629338161e-08
0, 0, 320, 2.882384286806428e-08
0, 0, 321, 2.827179557129966e-08
0, 0, 322, 2.827087719481369e-08
0, 0, 323, 2.795079545592216e-08
0, 0, 324, 2.738570792359951e-08
0, 0, 325, 2.703450441288169e-08
0, 0, 326, 2.679787769466202e-08
0, 0, 327, 2.662623899141181e-08
0, 0, 328, 2.577946034421075e-08
0, 0, 329, 2.570824086944867e-08
0, 0, 330, 2.536743259895502e-08
0, 0, 331, 2.490091510765069e-08
0, 0, 332, 2.484397754187739e-08
0, 0, 333, 2.461624681870944e-08
0, 0, 334, 2.461900550088103e-08
0, 0, 335, 2.452066460989499e-08
0, 0, 336, 2.410963162446933e-08
0, 0, 337, 2.360610018570242e-08
0, 0, 338, 2.381537100859532e-08
0, 0, 339, 2.334479098919928e-08
0, 0, 340, 2.323510273072316e-08
0, 0, 341, 2.320608238903787e-08
0, 0, 342, 2.268482468537059e-08
0, 0, 343, 2.26586038820642e-08
0, 0, 344, 2.261740839060167e-08
0, 0, 345, 2.237256602199977e-08
0, 0, 346, 2.255503694925665e-08
0, 0, 347, 2.188965098071094e-08
0, 0, 348, 2.167819523890557e-08
0, 0, 349, 2.16525926077793e-08
0, 0, 350, 2.164723333919483e-08
0, 0, 351, 2.135903187650001e-08
0, 0, 352, 2.165071144588637e-08
0, 0, 353, 2.134790832997169e-08
0, 0, 354, 2.114963670862835e-08
0, 0, 355, 2.095212359165544e-08
0, 0, 356, 2.073280391812204e-08
0, 0, 357, 2.091455542085896e-08
0, 0, 358, 2.052163594612466e-08
0, 0, 359, 2.027588053010732e-08
0, 0, 360, 2.011365651810593e-08
0, 0, 361, 2.000851573313867e-08
0, 0, 362, 1.983985953302181e-08
0, 0, 363, 2.010368760352321e-08
0, 0, 364, 1.990043685395904e-08
0, 0, 365, 1.984132325105747e-08
0, 0, 366, 1.962117401888008e-08
0, 0, 367, 1.994289000606386e-08
0, 0, 368, 1.962647644404569e-08
0, 0, 369, 1.960215989527114e-08
0, 0, 370, 1.923134540504634e-08
0, 0, 371, 1.922008863175506e-08
0, 0, 372, 1.93243625545847e-08
0, 0, 373, 1.946210481662547e-08
0, 0, 374, 1.911895708417433e-08
0, 0, 375, 1.908350633073042e-08
0, 0, 376, 1.911990388236973e-08
0, 0, 377, 1.925227621768499e-08
0, 0, 378, 1.935949356379751e-08
0, 0, 379, 1.902364665795631e-08
0, 0, 380, 1.901339174992245e-08
0, 0, 381, 1.874324695450014e-08
0, 0, 382, 1.905186763906386e-08
0, 0, 383, 1.860333753711529e-08
0, 0, 384, 1.857701548146906e-08
0, 0, 385, 1.857942066862961e-08
0, 0, 386, 1.83622912430792e-08
0, 0, 387, 1.813862660071663e-08
0, 0, 388, 1.831057083734322e-08
0, 0, 389, 1.860404985620789e-08
0, 0, 390, 1.787356218585501e-08
0, 0, 391, 1.806757765621114e-08
0, 0, 392, 1.782478520340192e-08
0, 0, 393, 1.780845160226363e-08
0, 0, 394, 1.795368831380983e-08
0, 0, 395, 1.794562720647264e-08
0, 0, 396, 1.7861019330212e-08
0, 0, 397, 1.754338896375884e-08
0, 0, 398, 1.771281255003032e-08
0, 0, 399, 1.761895340735009e-08
0, 0, 400, 1.774726321457365e-08
0, 0, 401, 1.75828542836598e-08
0, 0, 402, 1.748813360791246e-08
0, 0, 403, 1.744395916603025e-08
0, 0, 404, 1.724067644204297e-08
0, 0, 405, 1.730111520714672e-08
0, 0, 406, 1.733322108066204e-08
0, 0, 407, 1.720674447369674e-08
0, 0, 408, 1.768001034463396e-08
0, 0, 409, 1.726281340097557e-08
0, 0, 410, 1.700137453042316e-08
0, 0, 411, 1.712306385570628e-08
0, 0, 412, 1.712359498640126e-08
0, 0, 413, 1.70087837148003e-08
0, 0, 414, 1.713632791222608e-08
0, 0, 415, 1.696357188052389e-08
0, 0, 416, 1.692392892493899e-08
0, 0, 417, 1.696919760263427e-08
0, 0, 418, 1.683395467466653e-08
0, 0, 419, 1.696172802212459e-08
0, 0, 420, 1.694191453793792e-08
0, 0, 421, 1.673822858094809e-08
0, 0, 422, 1.693783602263466e-08
0, 0, 423, 1.675800653799797e-08
0, 0, 424, 1.683808470431813e-08
0, 0, 425, 1.637932456333147e-08
0, 0, 426, 1.647529579429374e-08
0, 0, 427, 1.654675862994281e-08
0, 0, 428, 1.633641133480523e-08
0, 0, 429, 1.646551339717917e-08
0, 0, 430, 1.635051560811007e-08
0, 0, 431, 1.628990276003606e-08
0, 0, 432, 1.633201129891404e-08
0, 0, 433, 1.640049163142976e-08
0, 0, 434, 1.658782622371291e-08
0, 0, 435, 1.628393064834199e-08
0, 0, 436, 1.608404076591796e-08
0, 0, 437, 1.604350607919969e-08
0, 0, 438, 1.610372812876903e-08
0, 0, 439, 1.589991249772993e-08
0, 0, 440, 1.594826848361208e-08
0, 0, 441, 1.585760500688593e-08
0, 0, 442, 1.590940357232284e-08
0, 0, 443, 1.583194375598396e-08
0, 0, 444, 1.574865926556868e-08
0, 0, 445, 1.573531882570478e-08
0, 0, 446, 1.559224394043213e-08
0, 0, 447, 1.576463759533908e-08
0, 0, 448, 1.59665916044105e-08
0, 0, 449, 1.57664867828089e-08
0, 0, 450, 1.563688556416309e-08
0, 0, 451, 1.596598053765774e-08
0, 0, 452, 1.565800999969724e-08
0, 0, 453, 1.546272443420094e-08
0, 0, 454, 1.571052976601095e-08
0, 0, 455, 1.547237893362308e-08
0, 0, 456, 1.594993825904112e-08
0, 0, 457, 1.536930938073056e-08
0, 0, 458, 1.554286477301048e-08
0, 0, 459, 1.533934224084987e-08
0, 0, 460, 1.559800999473282e-08
0, 0, 461, 1.509792468823434e-08
0, 0, 462, 1.526860593514812e-08
0, 0, 463, 1.52976173950492e-08
0, 0, 464, 1.524946569020358e-08
0, 0, 465, 1.530930937576613e-08
0, 0, 466, 1.557777551397521e-08
0, 0, 467, 1.534586324680731e-08
0, 0, 468, 1.541380534320069e-08
0, 0, 469, 1.512658798219491e-08
0, 0, 470, 1.590118436922694e-08
0, 0, 471, 1.538077754048572e-08
0, 0, 472, 1.526314719058064e-08
0, 0, 473, 1.540387017939793e-08
0, 0, 474, 1.535796201324047e-08
0, 0, 475, 1.545981653805484e-08
0, 0, 476, 1.54316772693619e-08
0, 0, 477, 1.555438622347083e-08
0, 0, 478, 1.497357970947633e-08
0, 0, 479, 1.492830037364001e-08
0, 0, 480, 1.518115588794444e-08
0, 0, 481, 1.513111769213538e-08
0, 0, 482, 1.497319424004218e-08
0, 0, 483, 1.487186551685227e-08
0, 0, 484, 1.513820002685407e-08
0, 0, 485, 1.53256962676096e-08
0, 0, 486, 1.506325375544293e-08
0, 0, 487, 1.486911127557278e-08
0, 0, 488, 1.508646718662021e-08
0, 0, 489, 1.490223944244917e-08
0, 0, 490, 1.526279191921276e-08
0, 0, 491, 1.535174476430257e-08
0, 0, 492, 1.480732869652002e-08
0, 0, 493, 1.457653109326884e-08
0, 0, 494, 1.463570153958926e-08
0, 0, 495, 1.48558347845551e-08
0, 0, 496, 1.471142141440396e-08
0, 0, 497, 1.458209109017616e-08
0, 0, 498, 1.463548571223328e-08
0, 0, 499, 1.463238863408378e-08
0, 0, 500, 1.459585607932468e-08
0, 0, 501, 1.472572819238849e-08
0, 0, 502, 1.464951360219402e-08
0, 0, 503, 1.494577439586919e-08
0, 0, 504, 1.457135478943883e-08
0, 0, 505, 1.460837406597193e-08
0, 0, 506, 1.47835095276605e-08
0, 0, 507, 1.491880396997658e-08
0, 0, 508, 1.479988576136293e-08
0, 0, 509, 1.462312049227421e-08
0, 0, 510, 1.49096752721789e-08
0, 0, 511, 1.45806904328083e-08
0, 0, 512, 1.468365695700413e-08
0, 0, 513, 1.448260800174239e-08
0, 0, 514, 1.450203868103017e-08
0, 0, 515, 1.469202182136087e-08
0, 0, 516, 1.482174294409333e-08
0, 0, 517, 1.471455579604708e-08
0, 0, 518, 1.457887854883211e-08
0, 0, 519, 1.449378750351116e-08
0, 0, 520, 1.432566598680296e-08
0, 0, 521, 1.466457444365687e-08
0, 0, 522, 1.436801344567584e-08
0, 0, 523, 1.437262220349567e-08
0, 0, 524, 1.449493947092151e-08
0, 0, 525, 1.441406016766678e-08
0, 0, 526, 1.423480711082448e-08
0, 0, 527, 1.436859786707601e-08
0, 0, 528, 1.434286556190045e-08
0, 0, 529, 1.422300677234034e-08
0, 0, 530, 1.459229359568326e-08
0, 0, 531, 1.447690767264476e-08
0, 0, 532, 1.439126418034675e-08
0, 0, 533, 1.469773014406428e-08
0, 0, 534, 1.41983749202268e-08
0, 0, 535, 1.419574768846132e-08
0, 0, 536, 1.427306095536096e-08
0, 0, 537, 1.439495456168061e-08
0, 0, 538, 1.464254228977779e-08
0, 0, 539, 1.444538444417276e-08
0, 0, 540, 1.428636675626649e-08
0, 0, 541, 1.481745659503986e-08
0, 0, 542, 1.455541287498363e-08
0, 0, 543, 1.441862895745771e-08
0, 0, 544, 1.440745744929472e-08
0, 0, 545, 1.439126950941727e-08
0, 0, 546, 1.415305295182634e-08
0, 0, 547, 1.419856676676545e-08
0, 0, 548, 1.444527519822714e-08
0, 0, 549, 1.410582672889404e-08
0, 0, 550, 1.404902150170528e-08
0, 0, 551, 1.429821416820687e-08
0, 0, 552, 1.425794149412241e-08
0, 0, 553, 1.415169670337946e-08
0, 0, 554, 1.422898954217544e-08
0, 0, 555, 1.423792106436395e-08
0, 0, 556, 1.416665185161037e-08
0, 0, 557, 1.423738726913371e-08
0, 0, 558, 1.40611140508895e-08
0, 0, 559, 1.382055181409214e-08
0, 0, 560, 1.385973025236353e-08
0, 0, 561, 1.397672999559063e-08
0, 0, 562, 1.368594393369449e-08
0, 0, 563, 1.372070013161419e-08
0, 0, 564, 1.400659677130989e-08
0, 0, 565, 1.391137161022016e-08
0, 0, 566, 1.392973381086904e-08
0, 0, 567, 1.41188225555311e-08
0, 0, 568, 1.403448823822373e-08
0, 0, 569, 1.406535421466515e-08
0, 0, 570, 1.378723268885551e-08
0, 0, 571, 1.405343930116487e-08
0, 0, 572, 1.37274405176413e-08
0, 0, 573, 1.396079607474121e-08
0, 0, 574, 1.406626548572376e-08
0, 0, 575, 1.404817240313605e-08
0, 0, 576, 1.409832162124758e-08
0, 0, 577, 1.464365961822978e-08
0, 0, 578, 1.397411342196619e-08
0, 0, 579, 1.390378034926698e-08
0, 0, 580, 1.382053316234533e-08
0, 0, 581, 1.384846992635858e-08
0, 0, 582, 1.383487280293139e-08
0, 0, 583, 1.348361955422206e-08
0, 0, 584, 1.351367640012313e-08
0, 0, 585, 1.364134050163557e-08
0, 0, 586, 1.332001886567014e-08
0, 0, 587, 1.357891221687169e-08
0, 0, 588, 1.360353785173629e-08
0, 0, 589, 1.383722736392201e-08
0, 0, 590, 1.370497670905024e-08
0, 0, 591, 1.360339663136756e-08
0, 0, 592, 1.366167801108986e-08
0, 0, 593, 1.358159451569918e-08
0, 0, 594, 1.345140709929638e-08
0, 0, 595, 1.359842194403882e-08
0, 0, 596, 1.370605318129492e-08
0, 0, 597, 1.358200041323698e-08
0, 0, 598, 1.329185383980303e-08
0, 0, 599, 1.339938737743296e-08
0, 0, 600, 1.347232281290189e-08
0, 0, 601, 1.36631630454076e-08
0, 0, 602, 1.321157672151685e-08
0, 0, 603, 1.336169663801456e-08
0, 0, 604, 1.333703814054843e-08
0, 0, 605, 1.316840858578416e-08
0, 0, 606, 1.365977375655802e-08
0, 0, 607, 1.353145773208553e-08
0, 0, 608, 1.34881208424531e-08
0, 0, 609, 1.339041144632347e-08
0, 0, 610, 1.341862887471734e-08
0, 0, 611, 1.328742715855924e-08
0, 0, 612, 1.328131826738854e-08
0, 0, 613, 1.322277487503243e-08
0, 0, 614, 1.314604958224663e-08
0, 0, 615, 1.328879051243348e-08
0, 0, 616, 1.328480880857796e-08
0, 0, 617, 1.33618742736985e-08
0, 0, 618, 1.338303334819102e-08
0, 0, 619, 1.357160694936965e-08
0, 0, 620, 1.326953746882964e-08
0, 0, 621, 1.353806844406336e-08
0, 0, 622, 1.367525559459182e-08
0, 0, 623, 1.340905253499614e-08
0, 0, 624, 1.351625655843236e-08
0, 0, 625, 1.324738896357758e-08
0, 0, 626, 1.332823540423078e-08
0, 0, 627, 1.383522096887191e-08
0, 0, 628, 1.35244322407857e-08
0, 0, 629, 1.313591635465627e-08
0, 0, 630, 1.328411070034008e-08
0, 0, 631, 1.358570855813923e-08
0, 0, 632, 1.341053845749229e-08
0, 0, 633, 1.342825317607321e-08
0, 0, 634, 1.321868925430181e-08
0, 0, 635, 1.343562594513514e-08
0, 0, 636, 1.359838108783151e-08
0, 0, 637, 1.339508948206003e-08
0, 0, 638, 1.309184760600601e-08
0, 0, 639, 1.333579380258243e-08
0, 0, 640, 1.337288768610279e-08
0, 0, 641, 1.336018584652265e-08
0, 0, 642, 1.351647238578835e-08
0, 0, 643, 1.324836063076873e-08
0, 0, 644, 1.322058995611997e-08
0, 0, 645, 1.304699992488167e-08
0, 0, 646, 1.321623699368502e-08
0, 0, 647, 1.319983056191631e-08
0, 0, 648, 1.306707542170216e-08
0, 0, 649, 1.320389309000802e-08
0, 0, 650, 1.30136337261888e-08
0, 0, 651, 1.322973641748604e-08
0, 0, 652, 1.296301110897957e-08
0, 0, 653, 1.306747954288312e-08
0, 0, 654, 1.297254570431505e-08
0, 0, 655, 1.277163619306521e-08
0, 0, 656, 1.268694926892522e-08
0, 0, 657, 1.262038828997447e-08
0, 0, 658, 1.284952499958081e-08
0, 0, 659, 1.297437268732438e-08
0, 0, 660, 1.282386108414357e-08
0, 0, 661, 1.273469685258988e-08
0, 0, 662, 1.280564987382604e-08
0, 0, 663, 1.299694929457473e-08
0, 0, 664, 1.284806927515092e-08
0, 0, 665, 1.28702684065729e-08
0, 0, 666, 1.271877980713043e-08
0, 0, 667, 1.273521466060856e-08
0, 0, 668, 1.272066718627229e-08
0, 0, 669, 1.286505835196294e-08
0, 0, 670, 1.278258832115853e-08
0, 0, 671, 1.283002237784103e-08
0, 0, 672, 1.259213977533591e-08
0, 0, 673, 1.281807726627449e-08
0, 0, 674, 1.280349604115827e-08
0, 0, 675, 1.28246560038292e-08
0, 0, 676, 1.315062636564335e-08
0, 0, 677, 1.246946101929325e-08
0, 0, 678, 1.255241421915798e-08
0, 0, 679, 1.255077997086573e-08
0, 0, 680, 1.25914043636044e-08
0, 0, 681, 1.247226855127792e-08
0, 0, 682, 1.230175072919337e-08
0, 0, 683, 1.249901959710087e-08
0, 0, 684, 1.276365235725052e-08
0, 0, 685, 1.261795823381817e-08
0, 0, 686, 1.24968071446574e-08
0, 0, 687, 1.254060411071123e-08
0, 0, 688, 1.247425274186753e-08
0, 0, 689, 1.240636304800091e-08
0, 0, 690, 1.228872115177637e-08
0, 0, 691, 1.247409553428724e-08
0, 0, 692, 1.270901250904899e-08
0, 0, 693, 1.295508322840533e-08
0, 0, 694, 1.266782856390591e-08
0, 0, 695, 1.229316737294539e-08
0, 0, 696, 1.236812963156808e-08
0, 0, 697, 1.260314252959915e-08
0, 0, 698, 1.265794313809465e-08
0, 0, 699, 1.269242844159635e-08
0, 0, 700, 1.242648650645606e-08
0, 0, 701, 1.251136794166996e-08
0, 0, 702, 1.270331129177293e-08
0, 0, 703, 1.279797956499351e-08
0, 0, 704, 1.268252702857353e-08
0, 0, 705, 1.23545822461324e-08
0, 0, 706, 1.236444102659107e-08
0, 0, 707, 1.251998860141157e-08
0, 0, 708, 1.254454407018102e-08
0, 0, 709, 1.255676984612819e-08
0, 0, 710, 1.232140967033502e-08
0, 0, 711, 1.220011114355657e-08
0, 0, 712, 1.233492330499075e-08
0, 0, 713, 1.218779477341059e-08
0, 0, 714, 1.234390722970602e-08
0, 0, 715, 1.226878421078936e-08
0, 0, 716, 1.211864297800958e-08
0, 0, 717, 1.207708333339497e-08
0, 0, 718, 1.214484068867705e-08
0, 0, 719, 1.227496948530415e-08
0, 0, 720, 1.22594441265278e-08
0, 0, 721, 1.256725923326485e-08
0, 0, 722, 1.209023992032598e-08
0, 0, 723, 1.210541356044814e-08
0, 0, 724, 1.245878422651003e-08
0, 0, 725, 1.240730806983947e-08
0, 0, 726, 1.215568978807369e-08
0, 0, 727, 1.248514625018515e-08
0, 0, 728, 1.269100824430325e-08
0, 0, 729, 1.261412219122349e-08
0, 0, 730, 1.30317623359133e-08
0, 0, 731, 1.230780810601573e-08
0, 0, 732, 1.255695991631001e-08
0, 0, 733, 1.265841209630025e-08
0, 0, 734, 1.306142127788235e-08
0, 0, 735, 1.300512852964175e-08
0, 0, 736, 1.231066271145664e-08
0, 0, 737, 1.260486914844705e-08
0, 0, 738, 1.240390279377834e-08
0, 0, 739, 1.224587897752372e-08
0, 0, 740, 1.233733915029234e-08
0, 0, 741, 1.246478653627037e-08
0, 0, 742, 1.254132531158803e-08
0, 0, 743, 1.273194794038091e-08
0, 0, 744, 1.278377936841935e-08
0, 0, 745, 1.24967307613133e-08
0, 0, 746, 1.233140967116242e-08
0, 0, 747, 1.239877178704774e-08
0, 0, 748, 1.228567114708312e-08
0, 0, 749, 1.22923156098409e-08
0, 0, 750, 1.237606905846178e-08
0, 0, 751, 1.296664553507298e-08
0, 0, 752, 1.239351732351679e-08
0, 0, 753, 1.245861547261029e-08
0, 0, 754, 1.241769620463629e-08
0, 0, 755, 1.248465597569748e-08
0, 0, 756, 1.22999983531713e-08
0, 0, 757, 1.21583685341875e-08
0, 0, 758, 1.213415679046648e-08
0, 0, 759, 1.205832855788458e-08
0, 0, 760, 1.231718194105724e-08
0, 0, 761, 1.194533982840085e-08
0, 0, 762, 1.222813850176863e-08
0, 0, 763, 1.229977897310164e-08
0, 0, 764, 1.218919454260003e-08
0, 0, 765, 1.21849099699034e-08
0, 0, 766, 1.230726098810919e-08
0, 0, 767, 1.237380065077787e-08
0, 0, 768, 1.215909062324272e-08
0, 0, 769, 1.2014191419496e-08
0, 0, 770, 1.220132705981314e-08
0, 0, 771, 1.202907906616701e-08
0, 0, 772, 1.199758070669077e-08
0, 0, 773, 1.193588961001524e-08
0, 0, 774, 1.272503435956196e-08
0, 0, 775, 1.228439305833717e-08
0, 0, 776, 1.198505028554564e-08
0, 0, 777, 1.218282008608185e-08
0, 0, 778, 1.197043975054157e-08
0, 0, 779, 1.219667922214285e-08
0, 0, 780, 1.265724858257045e-08
0, 0, 781, 1.229482560205497e-08
0, 0, 782, 1.216603262577109e-08
0, 0, 783, 1.197611432246504e-08
0, 0, 784, 1.183383258052118e-08
0, 0, 785, 1.207205713171788e-08
0, 0, 786, 1.187958442727677e-08
0, 0, 787, 1.192478293887689e-08
0, 0, 788, 1.221426515485291e-08
0, 0, 789, 1.206500854777914e-08
0, 0, 790, 1.217973366607339e-08
0, 0, 791, 1.203324551113383e-08
0, 0, 792, 1.228216550686057e-08
0, 0, 793, 1.23118466532901e-08
0, 0, 794, 1.201692256813658e-08
0, 0, 795, 1.229702473182215e-08
0, 0, 796, 1.188740661461907e-08
0, 0, 797, 1.208916611261657e-08
0, 0, 798, 1.205362565315227e-08
0, 0, 799, 1.221899381675939e-08
0, 0, 800, 1.18057545961392e-08
0, 0, 801, 1.237834723610831e-08
0, 0, 802, 1.228687018794972e-08
0, 0, 803, 1.211207933948799e-08
0, 0, 804, 1.253465953254818e-08
0, 0, 805, 1.25803181205697e-08
0, 0, 806, 1.224447476744217e-08
0, 0, 807, 1.253669701384297e-08
0, 0, 808, 1.244588165860705e-08
0, 0, 809, 1.232361057645903e-08
0, 0, 810, 1.261951076969581e-08
0, 0, 811, 1.220005962920823e-08
0, 0, 812, 1.238309899065371e-08
0, 0, 813, 1.182835696056372e-08
0, 0, 814, 1.210612321500548e-08
0, 0, 815, 1.214107481217752e-08
0, 0, 816, 1.235866431414934e-08
0, 0, 817, 1.215325795556055e-08
0, 0, 818, 1.209240085842112e-08
0, 0, 819, 1.194243282043317e-08
0, 0, 820, 1.203335742161471e-08
0, 0, 821, 1.206257316255233e-08
0, 0, 822, 1.199324817235947e-08
0, 0, 823, 1.229138746339231e-08
0, 0, 824, 1.1818946710207e-08
0, 0, 825, 1.218513290268675e-08
0, 0, 826, 1.222688528201843e-08
0, 0, 827, 1.218014578086013e-08
0, 0, 828, 1.211041222859421e-08
0, 0, 829, 1.192805765271032e-08
0, 0, 830, 1.183768549850583e-08
0, 0, 831, 1.222340717532688e-08
0, 0, 832, 1.25891546076673e-08
0, 0, 833, 1.221163081766008e-08
0, 0, 834, 1.220131906620736e-08
0, 0, 835, 1.188564269227754e-08
0, 0, 836, 1.161638785163177e-08
0, 0, 837, 1.171169117242243e-08
0, 0, 838, 1.198714461025929e-08
0, 0, 839, 1.20832526206982e-08
0, 0, 840, 1.187107478983762e-08
0, 0, 841, 1.18190053299827e-08
0, 0, 842, 1.175852126777954e-08
0, 0, 843, 1.180603348416298e-08
0, 0, 844, 1.177153752252025e-08
0, 0, 845, 1.1866917226655e-08
0, 0, 846, 1.17274829847247e-08
0, 0, 847, 1.167573948634981e-08
0, 0, 848, 1.209216993203199e-08
0, 0, 849, 1.211594113925685e-08
0, 0, 850, 1.178967234949369e-08
0, 0, 851, 1.191635412567393e-08
0, 0, 852, 1.168791907701916e-08
0, 0, 853, 1.169638608189416e-08
0, 0, 854, 1.211556188707164e-08
0, 0, 855, 1.165551655191166e-08
0, 0, 856, 1.149054273952288e-08
0, 0, 857, 1.143165206940466e-08
0, 0, 858, 1.170460350863323e-08
0, 0, 859, 1.186183862245116e-08
0, 0, 860, 1.188984199984588e-08
0, 0, 861, 1.185082698640372e-08
0, 0, 862, 1.176200381536319e-08
0, 0, 863, 1.166760377202536e-08
0, 0, 864, 1.14556026886703e-08
0, 0, 865, 1.144840666711389e-08
0, 0, 866, 1.140296834734045e-08
0, 0, 867, 1.17277938471716e-08
0, 0, 868, 1.136385474609369e-08
0, 0, 869, 1.162209350979992e-08
0, 0, 870, 1.138655925103649e-08
0, 0, 871, 1.135424199105728e-08
0, 0, 872, 1.15388072430278e-08
0, 0, 873, 1.173053831848847e-08
0, 0, 874, 1.228996282520711e-08
0, 0, 875, 1.175862429647623e-08
0, 0, 876, 1.180167252812225e-08
0, 0, 877, 1.158129414591258e-08
0, 0, 878, 1.140998673321292e-08
0, 0, 879, 1.160313001236091e-08
0, 0, 880, 1.183768727486267e-08
0, 0, 881, 1.185887299470778e-08
0, 0, 882, 1.162105434104888e-08
0, 0, 883, 1.140301009172617e-08
0, 0, 884, 1.187673159819269e-08
0, 0, 885, 1.182620668060963e-08
0, 0, 886, 1.199813137731098e-08
0, 0, 887, 1.225215484623732e-08
0, 0, 888, 1.157803009022018e-08
0, 0, 889, 1.184866338377333e-08
0, 0, 890, 1.139340977118763e-08
0, 0, 891, 1.142917760432738e-08
0, 0, 892, 1.141847683072683e-08
0, 0, 893, 1.162221785477868e-08
0, 0, 894, 1.158620399621668e-08
0, 0, 895, 1.16380345360767e-08
0, 0, 896, 1.174835428940924e-08
0, 0, 897, 1.130998406040362e-08
0, 0, 898, 1.120901416129527e-08
0, 0, 899, 1.116098857778525e-08
0, 0, 900, 1.144075501002817e-08
0, 0, 901, 1.139169114594552e-08
0, 0, 902, 1.145908523625394e-08
0, 0, 903, 1.14664366890338e-08
0, 0, 904, 1.146606631863278e-08
0, 0, 905, 1.134094329557911e-08
0, 0, 906, 1.122820769694499e-08
0, 0, 907, 1.142371708340306e-08
